Date,atr
2010-01-04,
2010-01-05,0.0657
2010-01-06,0.0612925925926
2010-01-07,0.0632301645338
2010-01-08,0.0606044545916
2010-01-11,0.0596576235055
2010-01-12,0.059447163735
2010-01-13,0.0582387732147
2010-01-14,0.0588075129367
2010-01-15,0.0592613325606
2010-01-18,0.0582976719276
2010-01-19,0.059617770292
2010-01-20,0.0607433298967
2010-01-21,0.0610848369247
2010-01-22,0.0629118758259
2010-01-25,0.0621547811221
2010-01-26,0.0621902877266
2010-01-27,0.0639961681002
2010-01-28,0.0640741200386
2010-01-29,0.0630174983801
2010-02-01,0.0642358501622
2010-02-02,0.0633907545631
2010-02-03,0.064004472448
2010-02-04,0.0674090442167
2010-02-05,0.0670387158127
2010-02-08,0.0659172292348
2010-02-09,0.0648958436396
2010-02-10,0.0646318778966
2010-02-11,0.0642780313731
2010-02-12,0.0644576888583
2010-02-15,0.0630833574568
2010-02-16,0.0622111534703
2010-02-17,0.0623835962918
2010-02-18,0.0618608897579
2010-02-19,0.0612890899979
2010-02-22,0.0602554772347
2010-02-23,0.0602435435345
2010-02-24,0.0593240358221
2010-02-25,0.0597704610469
2010-02-26,0.0599012677517
2010-03-01,0.0595245999391
2010-03-02,0.059972891991
2010-03-03,0.0598179345229
2010-03-04,0.0592428985629
2010-03-05,0.0585786393859
2010-03-08,0.058683915022
2010-03-09,0.0587811367349
2010-03-10,0.0585761896039
2010-03-11,0.0582176655785
2010-03-12,0.0579669059974
2010-03-15,0.0575519223788
2010-03-16,0.0571899483384
2010-03-17,0.05660687486
2010-03-18,0.0580053461176
2010-03-19,0.0580631641466
2010-03-22,0.0581167041895
2010-03-23,0.0584057822542
2010-03-24,0.0589997782613
2010-03-25,0.0591880676442
2010-03-26,0.0586970078626
2010-03-28,0.0581190191216
2010-03-29,0.058514825171
2010-03-30,0.0582395559784
2010-03-31,0.0576670729414
2010-04-01,0.0569416757342
2010-04-04,0.0562401659238
2010-04-05,0.0562156844294
2010-04-06,0.0573942144839
2010-04-07,0.0586527807382
2010-04-08,0.0578728908472
2010-04-11,0.0577599104342
2010-04-12,0.0579781918395
2010-04-13,0.0572763694617
2010-04-14,0.0571632658245
2010-04-15,0.0574886695788
2010-04-18,0.0573747539096
2010-04-19,0.0572331931769
2010-04-20,0.0567291463273
2010-04-21,0.0572930912919
2010-04-22,0.0567420048706
2010-04-25,0.0567676442059
2010-04-26,0.0576220674303
2010-04-27,0.0569117178006
2010-04-28,0.0568464559995
2010-04-29,0.0564995940667
2010-05-02,0.0558913623872
2010-05-03,0.0577379878481
2010-05-04,0.0590301792405
2010-05-05,0.0617677661103
2010-05-06,0.0618129874622
2010-05-09,0.0627275058023
2010-05-10,0.0630044387942
2010-05-11,0.0618743139757
2010-05-12,0.0608393830839
2010-05-13,0.062981447712
2010-05-16,0.0634045720619
2010-05-17,0.0635758133343
2010-05-18,0.0650572312098
2010-05-19,0.068719997662
2010-05-20,0.0686042081408
2010-05-23,0.0674174756702
2010-05-24,0.0689956849955
2010-05-25,0.0693890554522
2010-05-26,0.0683250363492
2010-05-27,0.0678158762807
2010-05-30,0.0688365969356
2010-05-31,0.0655255565348
2010-06-01,0.0642232623107
2010-06-02,0.0641715834441
2010-06-03,0.0616442573818
2010-06-06,0.0614696172386
2010-06-07,0.0604572307982
2010-06-08,0.0601530673013
2010-06-09,0.0592419236816
2010-06-10,0.0593603830857
2010-06-13,0.0588631139296
2010-06-14,0.0580656013111
2010-06-15,0.0582538049324
2010-06-16,0.057771313435
2010-06-17,0.057544757535
2010-06-20,0.057077210635
2010-06-21,0.0566573563262
2010-06-22,0.0573461981695
2010-06-23,0.0578000910731
2010-06-24,0.0579358127131
2010-06-27,0.0578261014019
2010-06-28,0.0592100731606
2010-06-29,0.0584307184999
2010-06-30,0.0555497341662
2010-07-01,0.0557819123796
2010-07-04,0.0556189079675
2010-07-05,0.0551961031262
2010-07-06,0.0550106567212
2010-07-07,0.0550884710339
2010-07-08,0.0550464353427
2010-07-11,0.0549502570431
2010-07-12,0.0545323640033
2010-07-13,0.0552157932058
2010-07-14,0.0556789675934
2010-07-15,0.056980513639
2010-07-18,0.0568104716453
2010-07-19,0.0566097178547
2010-07-20,0.0563375878301
2010-07-21,0.0557920322143
2010-07-22,0.0558354594921
2010-07-25,0.0552400567041
2010-07-26,0.0552800534537
2010-07-27,0.0549243287435
2010-07-28,0.0545440129889
2010-07-29,0.0547051574988
2010-08-01,0.0546905031738
2010-08-02,0.0549840427144
2010-08-03,0.0546423209964
2010-08-04,0.0545535827259
2010-08-05,0.0546211847071
2010-08-08,0.054326811349
2010-08-09,0.0549820453556
2010-08-10,0.0559261933299
2010-08-11,0.0556957490552
2010-08-12,0.0554817653467
2010-08-15,0.0549259210256
2010-08-16,0.0545454955918
2010-08-17,0.0543636733671
2010-08-18,0.0546091266622
2010-08-19,0.0546941894916
2010-08-22,0.0545946040407
2010-08-23,0.0553664215442
2010-08-24,0.0550331043135
2010-08-25,0.0545735950625
2010-08-26,0.0544326234739
2010-08-29,0.0546160081308
2010-08-30,0.0553934385598
2010-08-31,0.0551653351412
2010-09-01,0.0551678112092
2010-09-02,0.0558272549216
2010-09-05,0.0559110226226
2010-09-06,0.0557745207111
2010-09-07,0.0552549110442
2010-09-08,0.0551867029851
2010-09-09,0.0548019378192
2010-09-12,0.0545589418695
2010-09-13,0.0544475887124
2010-09-14,0.0547513327974
2010-09-15,0.0542405226535
2010-09-16,0.0546447715192
2010-09-19,0.0541915730499
2010-09-20,0.0550421758527
2010-09-21,0.0557463068236
2010-09-22,0.0557501420539
2010-09-23,0.0552108457473
2010-09-26,0.0553457854403
2010-09-27,0.0550710862846
2010-09-28,0.0549160085903
2010-09-29,0.0551720081339
2010-09-30,0.0559382937043
2010-10-03,0.0559927013257
2010-10-04,0.0565717943729
2010-10-05,0.058523809952
2010-10-06,0.0580435376089
2010-10-07,0.0578618562796
2010-10-10,0.0581217237832
2010-10-11,0.0574273147058
2010-10-12,0.0577110780306
2010-10-13,0.0583817155104
2010-10-14,0.0579258785643
2010-10-17,0.0580168872613
2010-10-18,0.0603371101436
2010-10-19,0.0594201735052
2010-10-20,0.0601258755403
2010-10-21,0.0595454557499
2010-10-24,0.0589279230888
2010-10-25,0.0591687857643
2010-10-26,0.0593567296665
2010-10-27,0.0585241060027
2010-10-28,0.0589509556292
2010-11-01,0.0591901731131
2010-11-02,0.0589265892898
2010-11-03,0.0583104042766
2010-11-04,0.0585096611332
2010-11-05,0.0592589711193
2010-11-08,0.0599761875275
2010-11-09,0.0591993169299
2010-11-10,0.0594779371691
2010-11-11,0.0596152273805
2010-11-12,0.0592712825463
2010-11-15,0.0586876194739
2010-11-16,0.0587456466574
2010-11-17,0.0579923861446
2010-11-18,0.0582215014305
2010-11-19,0.0587271084927
2010-11-22,0.0583180292985
2010-11-23,0.0584881700691
2010-11-24,0.0577104436091
2010-11-25,0.0580096976465
2010-11-26,0.0584090049692
2010-11-29,0.0581012188916
2010-11-30,0.0583297032623
2010-12-01,0.0579561530204
2010-12-02,0.0580449992352
2010-12-03,0.0581774992925
2010-12-06,0.0587933922118
2010-12-07,0.0583652927606
2010-12-08,0.0583463432774
2010-12-09,0.0586287473333
2010-12-10,0.0585552653799
2010-12-13,0.0579370321304
2010-12-14,0.0581915298385
2010-12-15,0.0577707062738
2010-12-16,0.0571156558189
2010-12-17,0.0572216804043
2010-12-20,0.0565201317977
2010-12-21,0.0558901223783
2010-12-22,0.0563622564978
2010-12-23,0.055914952459
2010-12-24,0.0557710272824
2010-12-27,0.0554516681888
2010-12-28,0.0554265490323
2010-12-29,0.0548603669556
2010-12-30,0.0554560550331
2010-12-31,0.0555163368167
2011-01-03,0.0552937413289
2011-01-04,0.0562513312378
2011-01-05,0.0562762361495
2011-01-06,0.0570350764271
2011-01-07,0.0565468566807
2011-01-10,0.0568577954902
2011-01-11,0.0566179529545
2011-01-12,0.056545242029
2011-01-13,0.0559991533114
2011-01-14,0.0566206423619
2011-01-17,0.0560120250491
2011-01-18,0.0553825946873
2011-01-19,0.0555624093528
2011-01-20,0.0552508086842
2011-01-21,0.0548757509205
2011-01-24,0.0544846258542
2011-01-25,0.0543571525787
2011-01-26,0.0539602131083
2011-01-27,0.0540201978864
2011-01-28,0.0545687551808
2011-01-31,0.0541424155246
2011-02-01,0.0537036715582
2011-02-02,0.0537748378755
2011-02-03,0.0537409208844
2011-02-04,0.0539165693927
2011-02-07,0.0539511001504
2011-02-08,0.0537974501396
2011-02-09,0.0536904894153
2011-02-10,0.0542983116002
2011-02-11,0.0543627179145
2011-02-14,0.054286809492
2011-02-15,0.0540448945282
2011-02-16,0.0537202592046
2011-02-17,0.0535830978328
2011-02-18,0.0541271622735
2011-02-21,0.0545466506827
2011-02-22,0.0545504613482
2011-02-23,0.0547539998234
2011-02-24,0.0542787141216
2011-02-25,0.0516659488266
2011-02-28,0.0486040953383
2011-03-01,0.0454538028135
2011-03-02,0.0425642454691
2011-03-03,0.0400453707923
2011-03-04,0.0382064157354
2011-03-07,0.0356773860396
2011-03-08,0.0341361441794
2011-03-09,0.0326049910236
2011-03-10,0.0310260630931
2011-03-11,0.0294170585863
2011-03-14,0.0278444115442
2011-03-15,0.0273626678625
2011-03-16,0.0261796201579
2011-03-17,0.0250810758608
2011-03-18,0.024232427585
2011-03-21,0.0242301113289
2011-03-22,0.0228422462339
2011-03-23,0.0218606572171
2011-03-24,0.0208348959873
2011-03-25,0.0200681177024
2011-03-27,0.0194561092951
2011-03-28,0.0188735300597
2011-03-29,0.0201825636269
2011-03-30,0.0214195233679
2011-03-31,0.0222609859845
2011-04-03,0.0224780584142
2011-04-04,0.0214867685274
2011-04-05,0.0206377136326
2011-04-06,0.0207778769445
2011-04-07,0.0227794571628
2011-04-10,0.0232237816512
2011-04-11,0.0228506543904
2011-04-12,0.0225113219339
2011-04-13,0.0218533703672
2011-04-14,0.0218533703672
2011-04-17,0.0218533703672
2011-04-18,0.0214476618039
2011-04-19,0.0221327773331
2011-04-20,0.0219535224162
2011-04-21,0.0210341077983
2011-04-24,0.0201947003285
2011-04-25,0.0190355761927
2011-04-26,0.0191806449923
2011-04-27,0.0200094185471
2011-04-28,0.0197166147482
2011-05-01,0.0197688579533
2011-05-02,0.0205699185494
2011-05-03,0.0212157716878
2011-05-04,0.022164517106
2011-05-05,0.0220169936131
2011-05-08,0.0223524111415
2011-05-09,0.0216401174237
2011-05-10,0.0213918344053
2011-05-11,0.0213257331531
2011-05-12,0.0218190914808
2011-05-15,0.0216038499064
2011-05-16,0.020801696462
2011-05-17,0.0208749810892
2011-05-18,0.0204811881691
2011-05-19,0.0197732045424
2011-05-22,0.0198627675137
2011-05-23,0.0199165048867
2011-05-24,0.019798848781
2011-05-25,0.0191738352903
2011-05-26,0.0201194626231
2011-05-29,0.0210389273389
2011-05-30,0.0208115698294
2011-05-31,0.020933742975
2011-06-01,0.0204541780699
2011-06-02,0.0226677075665
2011-06-05,0.0219771907271
2011-06-06,0.0221663425429
2011-06-07,0.0212823276705
2011-06-08,0.0206930179646
2011-06-09,0.0205063737665
2011-06-12,0.0200023360204
2011-06-13,0.0198799327441
2011-06-14,0.0196082726917
2011-06-15,0.0205559317792
2011-06-16,0.0197979312036
2011-06-19,0.0195468469586
2011-06-20,0.0191918834271
2011-06-21,0.0186903412328
2011-06-22,0.0176010373698
2011-06-23,0.0169772591399
2011-06-26,0.0166061979626
2011-06-27,0.0165484306872
2011-06-28,0.0175693819343
2011-06-29,0.0179869872767
2011-06-30,0.0181955849586
2011-07-03,0.0176016542281
2011-07-04,0.0174297341683
2011-07-05,0.017492021611
2011-07-06,0.0173423111798
2011-07-07,0.017604029703
2011-07-10,0.0189416156288
2011-07-11,0.0190316351786
2011-07-12,0.0188004823162
2011-07-13,0.0181639107309
2011-07-14,0.0175514677093
2011-07-17,0.0172188492927
2011-07-18,0.0165596778493
2011-07-19,0.0163194700147
2011-07-20,0.0161607948439
2011-07-21,0.0159848780123
2011-07-24,0.01611462942
2011-07-25,0.0170142272136
2011-07-26,0.0183426637685
2011-07-27,0.0194617343469
2011-07-28,0.0198218164534
2011-07-31,0.0198416972674
2011-08-01,0.0202817931136
2011-08-02,0.0194469969641
2011-08-03,0.0205512525427
2011-08-04,0.0213836346634
2011-08-07,0.0220993517971
2011-08-08,0.0249360783579
2011-08-09,0.0261124447295
2011-08-10,0.0255828288882
2011-08-11,0.0252411050848
2011-08-14,0.0258168862055
2011-08-15,0.0267730476843
2011-08-16,0.0258890655967
2011-08-17,0.0258326923415
2011-08-18,0.0254874350463
2011-08-21,0.0253311623728
2011-08-22,0.0244787981558
2011-08-23,0.0235015938787
2011-08-24,0.0231299994591
2011-08-25,0.0224349091767
2011-08-28,0.0220466545316
2011-08-29,0.0217575753906
2011-08-30,0.0216534520299
2011-08-31,0.0218710836239
2011-09-01,0.0242662210816
2011-09-04,0.026454530431
2011-09-05,0.0269292435474
2011-09-06,0.0254841937904
2011-09-07,0.0245495461845
2011-09-08,0.0246460131455
2011-09-11,0.0262285317828
2011-09-12,0.0273051227156
2011-09-13,0.0275047667066
2011-09-14,0.02673296212
2011-09-15,0.0265520285187
2011-09-18,0.0305627571369
2011-09-19,0.0345512786618
2011-09-20,0.037340568524
2011-09-21,0.0463522429334
2011-09-22,0.0490128755401
2011-09-25,0.0502691331467
2011-09-26,0.0512427912728
2011-09-27,0.0511040171881
2011-09-28,0.0499108469203
2011-09-29,0.0495243499791
2011-10-02,0.0505083435988
2011-10-03,0.0506291783219
2011-10-04,0.0512771047267
2011-10-05,0.0513001690242
2011-10-06,0.0535359026872
2011-10-09,0.0549119276123
2011-10-10,0.0530824820214
2011-10-11,0.0512622842334
2011-10-12,0.050000679308
2011-10-13,0.0500434883446
2011-10-16,0.0479617918334
2011-10-17,0.0483073810249
2011-10-18,0.0467354130145
2011-10-19,0.0463400235158
2011-10-20,0.0450514417684
2011-10-23,0.044726336761
2011-10-24,0.0439387367251
2011-10-25,0.042621677032
2011-10-26,0.0429487017312
2011-10-27,0.0452595194459
2011-10-31,0.0451624104967
2011-11-01,0.0469508168842
2011-11-02,0.0471614736017
2011-11-03,0.0460142215395
2011-11-04,0.0451274885962
2011-11-07,0.0438183783836
2011-11-08,0.04205991794
2011-11-09,0.0412484931541
2011-11-10,0.0412307436009
2011-11-11,0.0398285445363
2011-11-14,0.038962218152
2011-11-15,0.038293487012
2011-11-16,0.0371225215859
2011-11-17,0.0361566256028
2011-11-18,0.0350525792356
2011-11-21,0.0358559675691
2011-11-22,0.0358376841473
2011-11-23,0.0370921368092
2011-11-24,0.0397069871405
2011-11-25,0.0405279174936
2011-11-28,0.0407473521725
2011-11-29,0.041536827733
2011-11-30,0.0430056269885
2011-12-01,0.0442480831747
2011-12-02,0.0442446486598
2011-12-05,0.0429271728676
2011-12-06,0.0412823737762
2011-12-07,0.0398336319503
2011-12-08,0.039502658061
2011-12-09,0.0388167535701
2011-12-12,0.0390226998395
2011-12-13,0.0398710787889
2011-12-14,0.0418517168129
2011-12-15,0.040955165278
2011-12-16,0.0408226534266
2011-12-19,0.039642463517
2011-12-20,0.0390037159324
2011-12-21,0.0381677359914
2011-12-22,0.0367914687809
2011-12-23,0.0363420780464
2011-12-26,0.0342105005704
2011-12-27,0.0333597503545
2011-12-28,0.0329697681118
2011-12-29,0.0323576417094
2011-12-30,0.0322463815689
2012-01-02,0.0310502112738
2012-01-03,0.0317109105624
2012-01-04,0.0335172743321
2012-01-05,0.0329660403837
2012-01-06,0.0331398946618
2012-01-09,0.0322441878055
2012-01-10,0.0339696031316
2012-01-11,0.0348146315564
2012-01-12,0.033856443507
2012-01-13,0.034180983282
2012-01-16,0.0322323414768
2012-01-17,0.0318157456288
2012-01-18,0.0308574780236
2012-01-19,0.0303033724181
2012-01-20,0.0288245600223
2012-01-23,0.0283442342823
2012-01-24,0.0272125032092
2012-01-25,0.0266044672392
2012-01-26,0.0267684338716
2012-01-27,0.02678497431
2012-01-30,0.033328904944
2012-01-31,0.0322696974138
2012-02-01,0.0314361475735
2012-02-02,0.0309049941606
2012-02-03,0.0305832088551
2012-02-06,0.0298844082058
2012-02-07,0.0287569504517
2012-02-08,0.0277243111123
2012-02-09,0.0270368603054
2012-02-10,0.0262913702703
2012-02-13,0.0256634152406
2012-02-14,0.0245588855635
2012-02-15,0.0237261080114
2012-02-16,0.0234171002922
2012-02-17,0.0233444502704
2012-02-20,0.0220698466651
2012-02-21,0.0216648576133
2012-02-22,0.0207816534893
2012-02-23,0.0208829639553
2012-02-24,0.020298466525
2012-02-27,0.0199342903417
2012-02-28,0.0197032696013
2012-02-29,0.0208387503518
2012-03-01,0.0212931253296
2012-03-02,0.0211150449478
2012-03-05,0.0216068274542
2012-03-06,0.0221991969248
2012-03-07,0.0247706828708
2012-03-08,0.0248727769519
2012-03-09,0.0246461500259
2012-03-12,0.0268999964611
2012-03-13,0.0272928538581
2012-03-14,0.0277076500124
2012-03-15,0.0271571035813
2012-03-16,0.0268601676104
2012-03-19,0.0259272984929
2012-03-20,0.0264396343161
2012-03-21,0.0267082318656
2012-03-22,0.0259362153021
2012-03-23,0.0254907713511
2012-03-25,0.0258342876838
2012-03-26,0.0252318385625
2012-03-27,0.0248295643789
2012-03-28,0.0249774526377
2012-03-29,0.0248933488778
2012-04-01,0.0239866810997
2012-04-02,0.0235876324492
2012-04-03,0.0243742301323
2012-04-04,0.0242546422656
2012-04-05,0.0229650249597
2012-04-08,0.0219603803189
2012-04-09,0.0230846388684
2012-04-10,0.022985736092
2012-04-11,0.0228724692282
2012-04-12,0.0233530071408
2012-04-15,0.0239420780597
2012-04-16,0.0237390724839
2012-04-17,0.0240648530209
2012-04-18,0.0244816492339
2012-04-19,0.0245543885743
2012-04-22,0.0254505036765
2012-04-23,0.0256968962712
2012-04-24,0.0250471179659
2012-04-25,0.025050895254
2012-04-26,0.0247329741643
2012-04-29,0.0248520474384
2012-04-30,0.024641186907
2012-05-01,0.0246596735565
2012-05-02,0.0249411254454
2012-05-03,0.0257596164852
2012-05-06,0.0256053581648
2012-05-07,0.0265192611532
2012-05-08,0.0284607424997
2012-05-09,0.0289849751784
2012-05-10,0.0294931912371
2012-05-13,0.0303651061489
2012-05-14,0.0305890271383
2012-05-15,0.0300255251998
2012-05-16,0.0295308448283
2012-05-17,0.029664355912
2012-05-20,0.0304811876326
2012-05-21,0.0309896742304
2012-05-22,0.0337332689284
2012-05-23,0.0367308925766
2012-05-24,0.037528685964
2012-05-27,0.0393694941096
2012-05-28,0.0391145302446
2012-05-29,0.0383277780842
2012-05-30,0.0380472225068
2012-05-31,0.0379295637563
2012-06-03,0.0367917377736
2012-06-04,0.0372423279327
2012-06-05,0.0379821616518
2012-06-06,0.0360334358195
2012-06-07,0.0354167618323
2012-06-10,0.0354584217015
2012-06-11,0.0359113915799
2012-06-12,0.0348105778956
2012-06-13,0.0339169651888
2012-06-14,0.0341014676753
2012-06-17,0.0341799342699
2012-06-18,0.0339027961078
2012-06-19,0.0352525963858
2012-06-20,0.0354345537868
2012-06-21,0.0357535142306
2012-06-24,0.0352639774999
2012-06-25,0.0352094076784
2012-06-26,0.0344730214157
2012-06-27,0.0344249484574
2012-06-28,0.0370517378534
2012-07-01,0.0412480422924
2012-07-02,0.0406660392715
2012-07-03,0.0410327507522
2012-07-04,0.0401804114127
2012-07-05,0.0401318105975
2012-07-08,0.0394938241263
2012-07-09,0.0382942652601
2012-07-10,0.0370732463129
2012-07-11,0.0368394430049
2012-07-12,0.0357651970759
2012-07-15,0.0338819687134
2012-07-16,0.0323261138053
2012-07-17,0.0312885342477
2012-07-18,0.0306322103729
2012-07-19,0.0307084810605
2012-07-22,0.0313293038419
2012-07-23,0.0304557821389
2012-07-24,0.0293089405576
2012-07-25,0.0292368733749
2012-07-26,0.0286270967053
2012-07-29,0.0290537326549
2012-07-30,0.0291356088938
2012-07-31,0.0286687796871
2012-08-01,0.0289638668523
2012-08-02,0.0290021620772
2012-08-05,0.0297734362145
2012-08-06,0.029089619342
2012-08-07,0.0287760751033
2012-08-08,0.0278349268817
2012-08-09,0.0265395749615
2012-08-12,0.0268796053214
2012-08-13,0.0267096335128
2012-08-14,0.0263946596904
2012-08-15,0.0262236125697
2012-08-16,0.0261790688147
2012-08-19,0.0260519924708
2012-08-20,0.02585542158
2012-08-21,0.0257300343243
2012-08-22,0.0248493175869
2012-08-23,0.0247672234735
2012-08-26,0.0246481360825
2012-08-27,0.0251518406481
2012-08-28,0.0251838520304
2012-08-29,0.0249778625996
2012-08-30,0.0252223009854
2012-09-02,0.0259135652007
2012-09-03,0.0259983105435
2012-09-04,0.0253770026475
2012-09-05,0.0249357881727
2012-09-06,0.0251760890175
2012-09-09,0.025834939802
2012-09-10,0.0255681583876
2012-09-11,0.0253061470742
2012-09-12,0.0248057079974
2012-09-13,0.024691014569
2012-09-16,0.0255773706713
2012-09-17,0.0253147013376
2012-09-18,0.0253422226706
2012-09-19,0.0249749210513
2012-09-20,0.0237267124048
2012-09-23,0.0236748043759
2012-09-24,0.023212318349
2012-09-25,0.0231828670384
2012-09-26,0.0228198051071
2012-09-27,0.0219969618851
2012-09-30,0.0218186074648
2012-10-01,0.021460135503
2012-10-02,0.0212058401099
2012-10-03,0.0210982801021
2012-10-04,0.0212984029519
2012-10-07,0.0210985170268
2012-10-08,0.022227194382
2012-10-09,0.0220323947833
2012-10-10,0.0216800808702
2012-10-11,0.0213600750938
2012-10-14,0.0211057840156
2012-10-15,0.0212982280145
2012-10-16,0.0212626402992
2012-10-17,0.0211081659921
2012-10-18,0.0211290112784
2012-10-21,0.0209126533299
2012-10-22,0.0210903209492
2012-10-23,0.02089101231
2012-10-24,0.0208059400021
2012-10-25,0.0209198014306
2012-10-29,0.0217326727569
2012-10-30,0.0207303389886
2012-10-31,0.0209710290608
2012-11-01,0.0198945269851
2012-11-02,0.018909203629
2012-11-05,0.0194656890841
2012-11-06,0.0196038541495
2012-11-07,0.0198250074245
2012-11-08,0.0190660783228
2012-11-09,0.0197542155854
2012-11-12,0.0201074859008
2012-11-13,0.0200140940507
2012-11-14,0.0205059444756
2012-11-15,0.0206269484417
2012-11-16,0.0209535949816
2012-11-19,0.0222426239114
2012-11-20,0.0220610079178
2012-11-21,0.0221423644951
2012-11-22,0.0224964813169
2012-11-23,0.0230538755085
2012-11-26,0.0247785986865
2012-11-27,0.0241372702089
2012-11-28,0.0241417509082
2012-11-29,0.0248959115576
2012-11-30,0.0244747750178
2012-12-03,0.0262480053737
2012-12-04,0.0279802907041
2012-12-05,0.0280888413681
2012-12-06,0.0299396384133
2012-12-07,0.0298153785266
2012-12-10,0.0294071372033
2012-12-11,0.0290851988316
2012-12-12,0.0285791132008
2012-12-13,0.0283091765436
2012-12-14,0.0275585210762
2012-12-17,0.0274829124279
2012-12-18,0.0274912758259
2012-12-19,0.0280704704098
2012-12-20,0.0292297225233
2012-12-21,0.028927599486
2012-12-24,0.0289970566655
2012-12-25,0.0289972669037
2012-12-26,0.0300617478392
2012-12-27,0.0318001944221
2012-12-28,0.0313644662491
2012-12-31,0.0305241472313
2013-01-01,0.0290938510005
2013-01-02,0.0281371473576
2013-01-03,0.0275773511178
2013-01-04,0.0271432546093
2013-01-07,0.0276330221373
2013-01-08,0.0278878062703
2013-01-09,0.0274172486796
2013-01-10,0.0277088737739
2013-01-11,0.0280368113615
2013-01-14,0.0276841819785
2013-01-15,0.02702816898
2013-01-16,0.02702816898
2013-01-17,0.02702816898
2013-01-18,0.0263542362094
2013-01-21,0.0257094950001
2013-01-22,0.0251387206928
2013-01-23,0.0253345861693
2013-01-24,0.0252450271651
2013-01-25,0.0239644391797
2013-01-28,0.0245352112319
2013-01-29,0.0268519573876
2013-01-30,0.026056273634
2013-01-31,0.026013747815
2013-02-01,0.0255563067903
2013-02-04,0.0253173277538
2013-02-05,0.0253310997112
2013-02-06,0.0254188771365
2013-02-07,0.0257541537401
2013-02-08,0.0273831308455
2013-02-11,0.0270573168641
2013-02-12,0.026623182481
2013-02-13,0.0260892485956
2013-02-14,0.0256844944048
2013-02-15,0.0249720441592
2013-02-18,0.0245189595634
2013-02-19,0.0242831255269
2013-02-20,0.0242624206058
2013-02-21,0.0241556556728
2013-02-22,0.0233133561403
2013-02-25,0.0226282120161
2013-02-26,0.0219937956659
2013-02-27,0.021587717116
2013-02-28,0.0213275720448
2013-03-01,0.0205433137464
2013-03-04,0.0205401796063
2013-03-05,0.0214192343323
2013-03-06,0.0207605574586
2013-03-07,0.0202870714779
2013-03-08,0.0206990765805
2013-03-11,0.0214270333042
2013-03-12,0.0212594351136
2013-03-13,0.0205065699555
2013-03-14,0.0198442503414
2013-03-15,0.0194384111148
2013-03-18,0.0205639941198
2013-03-19,0.0207461741302
2013-03-20,0.0204412647671
2013-03-21,0.0199573714954
2013-03-22,0.0205847032715
2013-03-25,0.0211596570091
2013-03-26,0.0208828798633
2013-03-27,0.0206618679009
2013-03-28,0.0205785952542
2013-03-29,0.0197489430702
2013-03-31,0.0186350508054
2013-04-01,0.0187542991716
2013-04-02,0.0188793069148
2013-04-03,0.0188593096559
2013-04-04,0.0201077843496
2013-04-07,0.0217390891469
2013-04-08,0.0213426977232
2013-04-09,0.0216115438858
2013-04-10,0.021846813441
2013-04-11,0.0216646250694
2013-04-14,0.0221320883004
2013-04-15,0.0229880455681
2013-04-16,0.0236682873754
2013-04-17,0.0245072018688
2013-04-18,0.0253146659902
2013-04-21,0.025899895124
2013-04-22,0.0254780976406
2013-04-23,0.0251293731287
2013-04-24,0.025234498794
2013-04-25,0.0255108034395
2013-04-28,0.0251097656953
2013-04-29,0.0246373485351
2013-04-30,0.0243130667027
2013-05-01,0.0243407194844
2013-05-02,0.0240162223184
2013-05-05,0.0239578940086
2013-05-06,0.0239751946518
2013-05-07,0.0234553325829
2013-05-08,0.0229797772892
2013-05-09,0.0234813925808
2013-05-12,0.0233612551231
2013-05-13,0.0238070106379
2013-05-14,0.0241423155823
2013-05-15,0.0240749902818
2013-05-16,0.0244197148727
2013-05-19,0.0241896850249
2013-05-20,0.0240975459894
2013-05-21,0.0240977213088
2013-05-22,0.0240192989374
2013-05-23,0.0242893928478
2013-05-26,0.0249402485863
2013-05-27,0.0252874222697
2013-05-28,0.0264170388915
2013-05-29,0.0270801875575
2013-05-30,0.0287175004644
2013-06-02,0.029059143118
2013-06-03,0.0304407663698
2013-06-04,0.0324880381399
2013-06-05,0.0322603021597
2013-06-06,0.032620308423
2013-06-09,0.0336617897676
2013-06-10,0.0349146026248
2013-06-11,0.0360779173384
2013-06-12,0.0353437381657
2013-06-13,0.036526391449
2013-06-16,0.0382960226633
2013-06-17,0.0416393178364
2013-06-18,0.0399292934519
2013-06-19,0.0437987832534
2013-06-20,0.0439560188174
2013-06-23,0.0432948519835
2013-06-24,0.0428237761539
2013-06-25,0.042536355088
2013-06-26,0.0423908971665
2013-06-27,0.0424844068916
2013-06-30,0.0422998020367
2013-07-01,0.0431855498995
2013-07-02,0.0432294400867
2013-07-03,0.0419058836089
2013-07-04,0.0415340282463
2013-07-07,0.0407530134868
2013-07-08,0.0390777728591
2013-07-09,0.0387007837802
2013-07-10,0.0376649999804
2013-07-11,0.0365174860632
2013-07-14,0.0360305172883
2013-07-15,0.0378712138757
2013-07-16,0.0384089895357
2013-07-17,0.0386940642825
2013-07-18,0.0383659140859
2013-07-21,0.0372897689979
2013-07-22,0.03684049654
2013-07-23,0.0371804633521
2013-07-24,0.0378461486855
2013-07-25,0.036385701051
2013-07-28,0.0358224336667
2013-07-29,0.0348851123041
2013-07-30,0.035064747971
2013-07-31,0.0352744097313
2013-08-01,0.0353190949288
2013-08-04,0.0366463073523
2013-08-05,0.0354358526618
2013-08-06,0.0346904322327
2013-08-07,0.034655401255
2013-08-08,0.0352585885415
2013-08-11,0.0349686886183
2013-08-12,0.0350709253884
2013-08-13,0.0345515724293
2013-08-14,0.035112175547
2013-08-15,0.0354970208828
2013-08-18,0.0381758098367
2013-08-19,0.0375561081177
2013-08-20,0.0381735299067
2013-08-21,0.0395682797428
2013-08-22,0.0427562639473
2013-08-25,0.0479451085636
2013-08-26,0.0493561738353
2013-08-27,0.0502450194958
2013-08-28,0.0496346603645
2013-08-29,0.0488678982148
2013-09-01,0.0521273368003
2013-09-02,0.0512753835058
2013-09-03,0.050205712479
2013-09-04,0.0506481618858
2013-09-05,0.0524947229067
2013-09-08,0.0610808191172
2013-09-09,0.0599679028655
2013-09-10,0.0583987661603
2013-09-11,0.0562345675704
2013-09-12,0.0541178118294
2013-09-15,0.0526022532336
2013-09-16,0.051194948907
2013-09-17,0.050759595263
2013-09-18,0.0531196249309
2013-09-19,0.0518539370583
2013-09-22,0.0614715156464
2013-09-23,0.0590378353315
2013-09-24,0.058477989817
2013-09-25,0.0574295617404
2013-09-26,0.055948878454
2013-09-29,0.0546596726037
2013-09-30,0.0527911242288
2013-10-01,0.0505631864166
2013-10-02,0.0497086729703
2013-10-03,0.0475080531596
2013-10-06,0.0461931920461
2013-10-07,0.0461931920461
2013-10-08,0.0461931920461
2013-10-09,0.0451125961604
2013-10-10,0.0447549272621
2013-10-13,0.0435623233308
2013-10-14,0.0422841039508
2013-10-15,0.0413933887025
2013-10-16,0.040054168539
2013-10-17,0.0396297855537
2013-10-20,0.0384600167568
2013-10-21,0.0385783846827
2013-10-22,0.0367911617187
2013-10-23,0.036708161537
2013-10-24,0.0358746810983
2013-10-28,0.0358539724431
2013-10-29,0.0349863381328
2013-10-30,0.0332665054221
2013-10-31,0.0339028217101
2013-11-01,0.0369874572845
2013-11-04,0.0363064985253
2013-11-05,0.0374222023221
2013-11-06,0.0385634702995
2013-11-07,0.0381394743984
2013-11-08,0.0395313507451
2013-11-11,0.0394557898039
2013-11-12,0.0391738165527
2013-11-13,0.0384164695592
2013-11-14,0.037715518598
2013-11-15,0.037459644188
2013-11-18,0.0386400861149
2013-11-19,0.040836788113
2013-11-20,0.0386080661229
2013-11-21,0.0392955820283
2013-11-22,0.0396070454803
2013-11-25,0.0396426820268
2013-11-26,0.038888413306
2013-11-27,0.0382613565419
2013-11-28,0.038639157147
2013-11-29,0.038470577987
2013-12-02,0.0384510903496
2013-12-03,0.0377204196961
2013-12-04,0.0371434315957
2013-12-05,0.0370036927938
2013-12-06,0.038634854101
2013-12-09,0.0400331791313
2013-12-10,0.0393486203967
2013-12-11,0.0398547739566
2013-12-12,0.0399369502369
2013-12-13,0.0386502958602
2013-12-16,0.0378650469025
2013-12-17,0.0360537931848
2013-12-18,0.0359065950441
2013-12-19,0.0363933694023
2013-12-20,0.0378480919965
2013-12-23,0.0374435596861
2013-12-24,0.037905898376
2013-12-25,0.0353137007408
2013-12-26,0.0331079322245
2013-12-27,0.0322699616503
2013-12-30,0.0337248313308
2013-12-31,0.0331935625462
2014-01-01,0.0316701342803
2014-01-02,0.0337325021826
2014-01-03,0.0333224669476
2014-01-06,0.0326771708961
2014-01-07,0.0324356545124
2014-01-08,0.0322900883764
2014-01-09,0.0321835432236
2014-01-10,0.0323634630435
2014-01-13,0.0337887733152
2014-01-14,0.0332820124427
2014-01-15,0.0333118916874
2014-01-16,0.0333181896381
2014-01-17,0.0324019968121
2014-01-20,0.0330951383454
2014-01-21,0.0326595221222
2014-01-22,0.0324408686794
2014-01-23,0.0322878740225
2014-01-24,0.0342753647662
2014-01-27,0.0340984777659
2014-01-28,0.0339699643148
2014-01-29,0.0335719637665
2014-01-30,0.0335596764562
2014-01-31,0.0345628739219
2014-02-03,0.0339653503423
2014-02-04,0.0337749162545
2014-02-05,0.0349913016155
2014-02-06,0.0349419113178
2014-02-07,0.0346245626628
2014-02-10,0.0338940886905
2014-02-11,0.0342231442911
2014-02-12,0.0334213509917
2014-02-13,0.0330626248447
2014-02-14,0.0341440288963
2014-02-17,0.0332621891446
2014-02-18,0.0330220015668
2014-02-19,0.0326275252859
2014-02-20,0.0325041167958
2014-02-21,0.0330753107365
2014-02-24,0.0338985823606
2014-02-25,0.0330200333804
2014-02-26,0.0327114338615
2014-02-27,0.0316533924614
2014-02-28,0.0318495928061
2014-03-03,0.0310102802001
2014-03-04,0.030202353008
2014-03-05,0.0293949956507
2014-03-06,0.0301811093675
2014-03-07,0.0307253428268
2014-03-10,0.0313878488429
2014-03-11,0.0310029860425
2014-03-12,0.0307384765384
2014-03-13,0.0302142803185
2014-03-14,0.0295275225015
2014-03-17,0.0296827043983
2014-03-18,0.0286981964542
2014-03-19,0.0280625935729
2014-03-20,0.0281295528789
2014-03-21,0.0287060270108
2014-03-24,0.02822701457
2014-03-25,0.0282393709239
2014-03-26,0.0284437054385
2014-03-27,0.0300120397478
2014-03-28,0.0313112009611
2014-03-30,0.0309818244741
2014-03-31,0.0304616868376
2014-04-01,0.0304858523792
2014-04-02,0.030708294193
2014-04-03,0.0316791412567
2014-04-06,0.0337949390093
2014-04-07,0.0343167341474
2014-04-08,0.0340583936644
2014-04-09,0.0340399368195
2014-04-10,0.0341013703815
2014-04-13,0.0332941238116
2014-04-14,0.0336088313635
2014-04-15,0.0329224819932
2014-04-16,0.0323565871509
2014-04-17,0.031088252689
2014-04-20,0.0294962267043
2014-04-21,0.0294250673246
2014-04-22,0.0290375608503
2014-04-23,0.0290920210069
2014-04-24,0.0300997375265
2014-04-27,0.0303426142533
2014-04-28,0.0308752863658
2014-04-29,0.0312841956958
2014-04-30,0.0306138941565
2014-05-01,0.0303486153237
2014-05-04,0.0303522856665
2014-05-05,0.0301414076537
2014-05-06,0.030424164829
2014-05-07,0.0302510098691
2014-05-08,0.0297545082872
2014-05-11,0.0292434711429
2014-05-12,0.0287832225032
2014-05-13,0.0281415628456
2014-05-14,0.0289528808505
2014-05-15,0.028334817179
2014-05-18,0.0276323294423
2014-05-19,0.027772877487
2014-05-20,0.0267962424274
2014-05-21,0.0268322251438
2014-05-22,0.0265656374091
2014-05-25,0.0258609484719
2014-05-26,0.0264851668913
2014-05-27,0.0263576548845
2014-05-28,0.0257749648853
2014-05-29,0.0263624677349
2014-06-01,0.0279151494488
2014-06-02,0.0285926391133
2014-06-03,0.0283860219377
2014-06-04,0.0281298774029
2014-06-05,0.0289134579028
2014-06-08,0.0293124967726
2014-06-09,0.0297758900206
2014-06-10,0.0297418978654
2014-06-11,0.0288317620321
2014-06-12,0.0287580647237
2014-06-15,0.028525345755
2014-06-16,0.029302106958
2014-06-17,0.029301956461
2014-06-18,0.0311232456602
2014-06-19,0.0314001567374
2014-06-22,0.0307858597185
2014-06-23,0.0305225839809
2014-06-24,0.0301781136439
2014-06-25,0.0303225341184
2014-06-26,0.03012806737
2014-06-29,0.0302117768538
2014-06-30,0.02986093561
2014-07-01,0.0300351545135
2014-07-02,0.0309183578492
2014-07-03,0.0308741894273
2014-07-06,0.0307403187426
2014-07-07,0.029923153054
2014-07-08,0.0297857849686
2014-07-09,0.0298010860434
2014-07-10,0.0291438655703
2014-07-13,0.0283835894138
2014-07-14,0.0286847616148
2014-07-15,0.0283358500533
2014-07-16,0.029454717959
2014-07-17,0.0298650952655
2014-07-20,0.0311747313707
2014-07-21,0.0303622505281
2014-07-22,0.0299720897626
2014-07-23,0.0291883690399
2014-07-24,0.0292106283949
2014-07-27,0.028524154919
2014-07-28,0.0282010009878
2014-07-29,0.0294152152322
2014-07-30,0.0304784141678
2014-07-31,0.0310656703109
2014-08-03,0.0305895509938
2014-08-04,0.0301402973434
2014-08-05,0.0307517046861
2014-08-06,0.0308122972095
2014-08-07,0.0309971331257
2014-08-10,0.0310473379031
2014-08-11,0.0306225280477
2014-08-12,0.030292347469
2014-08-13,0.0295000369271
2014-08-14,0.0295714628616
2014-08-17,0.0290735012241
2014-08-18,0.028589679704
2014-08-19,0.0285261311532
2014-08-20,0.0276885503504
2014-08-21,0.02774651104
2014-08-24,0.0274003316778
2014-08-25,0.0267431651256
2014-08-26,0.027711510479
2014-08-27,0.0271249740133
2014-08-28,0.0267660472963
2014-08-31,0.0263113296303
2014-09-01,0.0262390917993
2014-09-02,0.0257434423832
2014-09-03,0.0253189107829
2014-09-04,0.0251747028694
2014-09-07,0.0254622240939
2014-09-08,0.0271149223775
2014-09-09,0.0274567136371
2014-09-10,0.0275169483775
2014-09-11,0.0299443092131
2014-09-14,0.0315482871298
2014-09-15,0.0343734094831
2014-09-16,0.0340467373766
2014-09-17,0.0344648275647
2014-09-18,0.0340101970236
2014-09-21,0.0345451829513
2014-09-22,0.0352419555986
2014-09-23,0.034246101626
2014-09-24,0.035957094369
2014-09-25,0.0377244447731
2014-09-28,0.0402798415775
2014-09-29,0.0401098528933
2014-09-30,0.0411662919732
2014-10-01,0.0423829854047
2014-10-02,0.0412842007321
2014-10-05,0.0470639006838
2014-10-06,0.0486879077788
2014-10-07,0.0490744857948
2014-10-08,0.0482405939519
2014-10-09,0.0481234086696
2014-10-12,0.0482003080503
2014-10-13,0.0459360003315
2014-10-14,0.0472834288798
2014-10-15,0.051248898247
2014-10-16,0.0504739769434
2014-10-19,0.0501686928759
2014-10-20,0.0512995005279
2014-10-21,0.0497566790612
2014-10-22,0.0486954876994
2014-10-23,0.0485529528637
2014-10-27,0.0511777419455
2014-10-28,0.0511507603779
2014-10-29,0.0546328489231
2014-10-30,0.0556947882859
2014-10-31,0.0562880176941
2014-11-03,0.0593745878593
2014-11-04,0.0632906887271
2014-11-05,0.0611199252463
2014-11-06,0.0605327877286
2014-11-07,0.0621947314625
2014-11-10,0.0604022506435
2014-11-11,0.0584020898831
2014-11-12,0.0562447977484
2014-11-13,0.0545630264805
2014-11-14,0.0550870960176
2014-11-17,0.0537880177306
2014-11-18,0.0515745878925
2014-11-19,0.0505335459001
2014-11-20,0.04886686405
2014-11-21,0.0493049451893
2014-11-24,0.0507903062473
2014-11-25,0.0495552843724
2014-11-26,0.0494727640601
2014-11-27,0.0485389951986
2014-11-28,0.0508504955417
2014-12-01,0.0506468887173
2014-12-02,0.0503149680946
2014-12-03,0.0492924703735
2014-12-04,0.0491144367754
2014-12-05,0.0494919770058
2014-12-08,0.0476139786482
2014-12-09,0.0463701230304
2014-12-10,0.0450722570996
2014-12-11,0.0460813815925
2014-12-12,0.0465398543359
2014-12-15,0.047401293312
2014-12-16,0.0515297723612
2014-12-17,0.0518990743354
2014-12-18,0.0540634261686
2014-12-19,0.0559660385851
2014-12-22,0.0537898929719
2014-12-23,0.0546406149025
2014-12-24,0.0530662852666
2014-12-25,0.0507186934618
2014-12-26,0.0474173582145
2014-12-29,0.0471018326277
2014-12-30,0.0477802731543
2014-12-31,0.0487888250719
2015-01-01,0.0454181947096
2015-01-02,0.0458597522303
2015-01-05,0.0469911984996
2015-01-06,0.0457703986068
2015-01-07,0.0455796558491
2015-01-08,0.0451739661456
2015-01-09,0.0458758257067
2015-01-12,0.0460632667276
2015-01-13,0.0465301762471
2015-01-14,0.0482208779437
2015-01-15,0.0481051009477
2015-01-16,0.0467690223086
2015-01-19,0.0462712350008
2015-01-20,0.0455375753579
2015-01-21,0.0469634628324
2015-01-22,0.0482946440586
2015-01-23,0.0470235980544
2015-01-26,0.046014769622
2015-01-27,0.0450422860775
2015-01-28,0.0446464085006
2015-01-29,0.0437002364648
2015-01-30,0.0486002195745
2015-02-02,0.0528930610335
2015-02-03,0.0524506995311
2015-02-04,0.0517256495646
2015-02-05,0.0527095317385
2015-02-06,0.0518588509001
2015-02-09,0.0517403615501
2015-02-10,0.0538160500108
2015-02-11,0.0573720464386
2015-02-12,0.0563526145501
2015-02-13,0.0561131420822
2015-02-16,0.0534336319335
2015-02-17,0.0510383725097
2015-02-18,0.0501070601876
2015-02-19,0.0497136987456
2015-02-20,0.0495055774066
2015-02-23,0.0486766075919
2015-02-24,0.0472568499067
2015-02-25,0.047545646342
2015-02-26,0.0476495287461
2015-02-27,0.0486531338357
2015-03-02,0.0502493385617
2015-03-03,0.0521386715216
2015-03-04,0.0558287664129
2015-03-05,0.0567481402405
2015-03-06,0.0595304159376
2015-03-09,0.0626139576564
2015-03-10,0.0659272463952
2015-03-11,0.0652895859384
2015-03-12,0.0647189012285
2015-03-13,0.0704604082836
2015-03-16,0.0714632362634
2015-03-17,0.0707730051017
2015-03-18,0.0700463618802
2015-03-19,0.0707073360316
2015-03-20,0.0731068120293
2015-03-23,0.0773706111701
2015-03-24,0.0814155675151
2015-03-25,0.0795573126926
2015-03-26,0.0795675046431
2015-03-27,0.0785269685972
2015-03-29,0.0804536136974
2015-03-30,0.0816426412904
2015-03-31,0.0823610240554
2015-04-01,0.0804566651943
2015-04-02,0.0778740462518
2015-04-05,0.0748616143767
2015-04-06,0.0723857847784
2015-04-07,0.0718296572942
2015-04-08,0.0742561103446
2015-04-09,0.0729021024629
2015-04-12,0.0720733808584
2015-04-13,0.0707467107971
2015-04-14,0.0708862314544
2015-04-15,0.0702872149219
2015-04-16,0.0698595567132
2015-04-19,0.0675338740909
2015-04-20,0.0645743116558
2015-04-21,0.0627332893947
2015-04-22,0.0622594830093
2015-04-23,0.0615123770801
2015-04-26,0.0621829215744
2015-04-27,0.0626269986048
2015-04-28,0.0611393558473
2015-04-29,0.0624436875725
2015-04-30,0.067111995603
2015-05-03,0.0685254244885
2015-05-04,0.0690164655965
2015-05-05,0.0686295751967
2015-05-06,0.0673346055398
2015-05-07,0.0669821337156
2015-05-10,0.068497695593
2015-05-11,0.0708692887649
2015-05-12,0.0711857681389
2015-05-13,0.0693724989861
2015-05-14,0.0692887490585
2015-05-17,0.0669181241258
2015-05-18,0.0658311152596
2015-05-19,0.0636431784554
2015-05-20,0.0628329514229
2015-05-21,0.0632020263212
2015-05-24,0.0652661672983
2015-05-25,0.0656828696341
2015-05-26,0.0671912360888
2015-05-27,0.0664132906539
2015-05-28,0.0655623413215
2015-05-31,0.0645364597985
2015-06-01,0.0632624269558
2015-06-02,0.0638293964589
2015-06-03,0.0602487252833
2015-06-04,0.0616666734773
2015-06-07,0.0601261968004
2015-06-08,0.0598957541718
2015-06-09,0.0590746288738
2015-06-10,0.0598907268114
2015-06-11,0.0583771034677
2015-06-14,0.05751445322
2015-06-15,0.0563134208472
2015-06-16,0.0564410336438
2015-06-17,0.056573816955
2015-06-18,0.0560399728867
2015-06-21,0.0549871176805
2015-06-22,0.0540451807034
2015-06-23,0.0527133820817
2015-06-24,0.0524481405044
2015-06-25,0.0516232733255
2015-06-28,0.051214468088
2015-06-29,0.0515705775103
2015-06-30,0.0500726791167
2015-07-01,0.0503889163226
2015-07-02,0.0510682794425
2015-07-05,0.0520276880537
2015-07-06,0.0531042817642
2015-07-07,0.0566539759239
2015-07-08,0.0565429776436
2015-07-09,0.0566184792405
2015-07-12,0.0580171592947
2015-07-13,0.0570873622022
2015-07-14,0.0559739791878
2015-07-15,0.0535329806744
2015-07-16,0.0543163391976
2015-07-19,0.0554437435407
2015-07-20,0.0536263332878
2015-07-21,0.0549744523386
2015-07-22,0.0597834200287
2015-07-23,0.0637060328838
2015-07-26,0.0656913162493
2015-07-27,0.0652776508029
2015-07-28,0.0637935328884
2015-07-29,0.0638725662535
2015-07-30,0.0654888115211
2015-08-02,0.0669538964125
2015-08-03,0.0664000466687
2015-08-04,0.0649714719067
2015-08-05,0.0672306524848
2015-08-06,0.0680856058787
2015-08-09,0.0682652054588
2015-08-10,0.071460547926
2015-08-11,0.070999080217
2015-08-12,0.0711134316301
2015-08-13,0.0704981865137
2015-08-16,0.0697911731913
2015-08-17,0.0676989465347
2015-08-18,0.066384736068
2015-08-19,0.0658001120631
2015-08-20,0.0651572469158
2015-08-23,0.0689174435646
2015-08-24,0.0679733404529
2015-08-25,0.0703823875634
2015-08-26,0.070355074166
2015-08-27,0.0694582831541
2015-08-30,0.0735541200717
2015-08-31,0.075085968638
2015-09-01,0.0790869708781
2015-09-02,0.0819093301011
2015-09-03,0.0826229493796
2015-09-06,0.0842784529954
2015-09-07,0.0826442777814
2015-09-08,0.0818982579399
2015-09-09,0.085362668087
2015-09-10,0.0871439060808
2015-09-13,0.0844907699322
2015-09-14,0.0843628577942
2015-09-15,0.0819297965232
2015-09-16,0.0829348110572
2015-09-17,0.0835108959817
2015-09-20,0.0848029748402
2015-09-21,0.0848029748402
2015-09-22,0.0848029748402
2015-09-23,0.0936976747697
2015-09-24,0.109836178903
2015-09-27,0.109351574043
2015-09-28,0.114711076114
2015-09-29,0.117765001495
2015-09-30,0.117908768587
2015-10-01,0.115861711763
2015-10-04,0.115802819548
2015-10-05,0.115402914599
2015-10-06,0.115983694019
2015-10-07,0.113725777687
2015-10-08,0.117244562649
2015-10-11,0.111714996907
2015-10-12,0.111616248499
2015-10-13,0.112961788737
2015-10-14,0.112793134155
2015-10-15,0.109307397753
2015-10-18,0.111189454327
2015-10-19,0.108669579625
2015-10-20,0.107093876365
2015-10-21,0.103335100404
2015-10-22,0.101262385315
2015-10-26,0.099536109378
2015-10-27,0.0960305499388
2015-10-28,0.0924145410947
2015-10-29,0.0907151284763
2015-10-30,0.0893675186233
2015-11-02,0.0843691022122
2015-11-03,0.0851335870018
2015-11-04,0.0880823052426
2015-11-05,0.0852080526347
2015-11-06,0.0846937209409
2015-11-09,0.0813687542513
2015-11-10,0.0792691354155
2015-11-11,0.0804621944932
2015-11-12,0.0801980842716
2015-11-13,0.0789874743222
2015-11-16,0.0801623392379
2015-11-17,0.0785023230432
2015-11-18,0.0768835084372
2015-11-19,0.0779991926387
2015-11-20,0.077093701043
2015-11-23,0.0768068040357
2015-11-24,0.0748172332571
2015-11-25,0.0773713921591
2015-11-26,0.076648714268
2015-11-27,0.0749451700956
2015-11-30,0.0827009849393
2015-12-01,0.0816327318546
2015-12-02,0.0780181496307
2015-12-03,0.0782389764092
2015-12-04,0.080643214717
2015-12-07,0.0781476452171
2015-12-08,0.0777933497088
2015-12-09,0.0793331399203
2015-12-10,0.0792591836135
2015-12-11,0.0836996242863
2015-12-14,0.0856533091809
2015-12-15,0.0850198285546
2015-12-16,0.0843315868064
2015-12-17,0.0823549387636
2015-12-18,0.080820306841
2015-12-21,0.0864117983413
2015-12-22,0.0842798251775
2015-12-23,0.0824792593985
2015-12-24,0.0803213647038
2015-12-25,0.0765948287943
2015-12-28,0.0771170927949
2015-12-29,0.0767655806048
2015-12-30,0.0819577485273
2015-12-31,0.0829543356825
2016-01-01,0.0775039813628
2016-01-04,0.0797836728441
2016-01-05,0.0815144005771
2016-01-06,0.0788691096483
2016-01-07,0.0768274519007
2016-01-08,0.0742814677891
2016-01-11,0.072867904606
2016-01-12,0.0718555115977
2016-01-13,0.0726947113767
2016-01-14,0.0710731083685
2016-01-15,0.0697674734988
2016-01-18,0.0678120798293
2016-01-19,0.0670824466264
2016-01-20,0.0663692341616
2016-01-21,0.0693792821958
2016-01-22,0.0683233886874
2016-01-25,0.0681216771798
2016-01-26,0.0676700438024
2016-01-27,0.0671863847122
2016-01-28,0.068530432506
2016-01-29,0.0710286352378
2016-02-01,0.0734126377593
2016-02-02,0.0725687682658
2016-02-03,0.0710922495188
2016-02-04,0.0767505799484
2016-02-05,0.0753539646505
2016-02-08,0.0717569053886
2016-02-09,0.067573894046
2016-02-10,0.0679186446172
2016-02-11,0.069846033369
2016-02-12,0.0700070425498
2016-02-15,0.0675563760663
2016-02-16,0.0693096006387
2016-02-17,0.0707732847642
2016-02-18,0.0723395623469
2016-02-19,0.0728939068091
2016-02-22,0.0742515474037
2016-02-23,0.0747336003418
2016-02-24,0.0737597330832
2016-02-25,0.0712553741126
2016-02-26,0.0701513810277
2016-02-29,0.0683690828733
2016-03-01,0.0670141083892
2016-03-02,0.0709346366704
2016-03-03,0.0722821969176
2016-03-04,0.0841766067975
2016-03-07,0.0826139577355
2016-03-08,0.0796771866274
2016-03-09,0.0810859856672
2016-03-10,0.0834584569457
2016-03-11,0.0839328606178
2016-03-14,0.0824447766017
2016-03-15,0.0893273893777
2016-03-16,0.0966612430769
2016-03-17,0.0995211889749
2016-03-18,0.101991131867
2016-03-21,0.0978917224316
2016-03-22,0.0953565747808
2016-03-23,0.0955596784137
2016-03-24,0.0985911553401
2016-03-25,0.093827464347
2016-03-27,0.0902111907837
2016-03-28,0.0897961029448
2016-03-29,0.0891963775723
2016-03-30,0.0903395000682
2016-03-31,0.0896366748621
2016-04-03,0.0883126200579
2016-04-04,0.0906403008273
2016-04-05,0.090430278437
2016-04-06,0.0904781158824
2016-04-07,0.0888511015757
2016-04-10,0.095240330592
2016-04-11,0.0970803128576
2016-04-12,0.0953959997989
2016-04-13,0.0912748456017
2016-04-14,0.0914409284837
2016-04-17,0.0941165828054
2016-04-18,0.0931939677127
2016-04-19,0.094087257563
2016-04-20,0.0897167308527
2016-04-21,0.0885798194981
2016-04-24,0.0852026839953
2016-04-25,0.0820810589561
2016-04-26,0.0791038362491
2016-04-27,0.0767535591452
2016-04-28,0.0781854495236
2016-05-01,0.0790936327287
2016-05-02,0.0837512352877
2016-05-03,0.0828904319268
2016-05-04,0.0805482560945
2016-05-05,0.0787590934388
2016-05-08,0.0867191644151
2016-05-09,0.0840749364662
2016-05-10,0.083062440322
2016-05-11,0.0826936943539
2016-05-12,0.081758429928
2016-05-15,0.0796542552263
2016-05-16,0.0777789503419
2016-05-17,0.0771661678895
2016-05-18,0.0807043002832
2016-05-19,0.0769539916155
2016-05-22,0.0759572775574
2016-05-23,0.0725888994238
2016-05-24,0.0725254065874
2016-05-25,0.0697807338697
2016-05-26,0.0697249671493
2016-05-29,0.0669374687789
2016-05-30,0.0662847922817
2016-05-31,0.0661215927968
2016-06-01,0.0643629072349
2016-06-02,0.0644226995867
2016-06-05,0.0655496498163
2016-06-06,0.0662103892241
2016-06-07,0.0696167905152
2016-06-08,0.0717298772074
2016-06-09,0.0724634575037
2016-06-12,0.0722374962257
2016-06-13,0.0738276752477
2016-06-14,0.0711185553009
2016-06-15,0.068652943966
2016-06-16,0.0677205907406
2016-06-19,0.0693691201129
2016-06-20,0.0687213257682
2016-06-21,0.0664698023348
2016-06-22,0.0670362450635
2016-06-23,0.0713836564039
2016-06-26,0.0712919666554
2016-06-27,0.0723711119529
2016-06-28,0.0789231757148
2016-06-29,0.081264377559
2016-06-30,0.0792169219301
2016-07-03,0.0768442845537
2016-07-04,0.0759768356246
2016-07-05,0.0742713473064
2016-07-06,0.0724662510119
2016-07-07,0.0731972331044
2016-07-10,0.074183145053
2016-07-11,0.0723343489299
2016-07-12,0.0694747525092
2016-07-13,0.0703336987777
2016-07-14,0.0685241488275
2016-07-17,0.0662581381534
2016-07-18,0.0650325568349
2016-07-19,0.0624230884463
2016-07-20,0.0599500106621
2016-07-21,0.0586035813098
2016-07-24,0.0579533254933
2016-07-25,0.0564638022255
2016-07-26,0.0546735306174
2016-07-27,0.0535539927043
2016-07-28,0.0541572789457
2016-07-31,0.0533889018711
2016-08-01,0.0519682660111
2016-08-02,0.0508776755731
2016-08-03,0.0513721273215
2016-08-04,0.0531812610966
2016-08-07,0.0527468853012
2016-08-08,0.0522649649197
2016-08-09,0.0526960388564
2016-08-10,0.0524177503652
2016-08-11,0.0520879110519
2016-08-14,0.0521316316912
2016-08-15,0.050936515137
2016-08-16,0.0506267640546
2016-08-17,0.0504891380502
2016-08-18,0.0496899139012
2016-08-21,0.0487763486198
2016-08-22,0.0475280380006
2016-08-23,0.0476117495722
2016-08-24,0.0459609103131
2016-08-25,0.0460065595765
2016-08-28,0.04689894818
2016-08-29,0.047670451883
2016-08-30,0.0464868481749
2016-08-31,0.047366359021
2016-09-01,0.047318761948
2016-09-04,0.0462602789502
2016-09-05,0.0472702590265
2016-09-06,0.0505152405287
2016-09-07,0.0505284376338
2016-09-08,0.0530121206626
2016-09-11,0.0555183977606
2016-09-12,0.0567456550645
2016-09-13,0.0596138225624
2016-09-14,0.0590271209503
2016-09-15,0.0589108980252
2016-09-18,0.05814583388
2016-09-19,0.0559782743158
2016-09-20,0.0550083975784
2016-09-21,0.0565506548951
2016-09-22,0.0547398938302
2016-09-25,0.0531870442702
2016-09-26,0.05130939825
2016-09-27,0.0492801555171
2016-09-28,0.047410144408
2016-09-29,0.046995134093
2016-10-02,0.0462811959433
2016-10-03,0.0469968248047
2016-10-04,0.0472613373187
2016-10-05,0.0467712417958
2016-10-06,0.0469732959533
2016-10-09,0.0457180605278
2016-10-10,0.0444381990612
2016-10-11,0.0420497562707
2016-10-12,0.0406747736797
2016-10-13,0.0409694327026
2016-10-16,0.0399430446523
2016-10-17,0.0391899700341
2016-10-18,0.0393192578889
2016-10-19,0.0388321680396
2016-10-20,0.0383012988938
2016-10-23,0.03806549183
2016-10-24,0.0389750995565
2016-10-25,0.0380554495881
2016-10-26,0.0388300603319
2016-10-27,0.0398993417368
2016-10-31,0.0400136744699
2016-11-01,0.0411984120079
2016-11-02,0.0413413825787
2016-11-03,0.0408455695374
2016-11-04,0.0403137431418
2016-11-07,0.0427484757747
2016-11-08,0.0429378703622
2016-11-09,0.0458065939079
2016-11-10,0.0580489800578
2016-11-11,0.07255262434
2016-11-14,0.0735560083157
2016-11-15,0.0721734362931
2016-11-16,0.0702039051293
2016-11-17,0.0707464833343
2016-11-18,0.0715145916676
2016-11-21,0.0732421208342
2016-11-22,0.0723248264889
2016-11-23,0.0715801960254
2016-11-24,0.0717601820236
2016-11-25,0.0719630261648
2016-11-28,0.0693513814387
2016-11-29,0.0675691399073
2016-11-30,0.0681284870568
2016-12-01,0.0699907379813
2016-12-02,0.0772056852685
2016-12-05,0.0810552791779
2016-12-06,0.0794084735223
2016-12-07,0.0777364396993
2016-12-08,0.0753838368636
2016-12-09,0.0741349913733
2016-12-12,0.0737753491324
2016-12-13,0.0727485384801
2016-12-14,0.0707665000172
2016-12-15,0.0708831785874
2016-12-16,0.0702486658311
2016-12-19,0.0677594754146
2016-12-20,0.0658837985993
2016-12-21,0.0639706701279
2016-12-22,0.0621227651188
2016-12-23,0.0623925676103
2016-12-26,0.0591359556381
2016-12-27,0.0563691016639
2016-12-28,0.0552213086879
2016-12-29,0.0542912152102
2016-12-30,0.0527561284095
2017-01-02,0.051630690666
2017-01-03,0.0509570699041
2017-01-04,0.0519744220538
2017-01-05,0.0528119633357
2017-01-06,0.0508039659546
2017-01-09,0.0493822541007
2017-01-10,0.0489120930935
2017-01-11,0.0478612293011
2017-01-12,0.0473425700653
2017-01-13,0.0467681007749
2017-01-16,0.046570379291
2017-01-17,0.0471367807702
2017-01-18,0.0480555821438
2017-01-19,0.0470873262763
2017-01-20,0.0469810886852
2017-01-23,0.0464681537791
2017-01-24,0.0452061427949
2017-01-25,0.0428199897381
2017-01-26,0.0425828476139
2017-01-27,0.0420912156415
2017-01-30,0.0432132716671
2017-01-31,0.0422480379766
2017-02-01,0.041716035264
2017-02-02,0.0417577470309
2017-02-03,0.0409893365287
2017-02-06,0.0393115267766
2017-02-07,0.0380464177211
2017-02-08,0.0362645307411
2017-02-09,0.0345670642595
2017-02-10,0.0336837025267
2017-02-13,0.0326491523462
2017-02-14,0.0320313557501
2017-02-15,0.0334576874822
2017-02-16,0.0339178526621
2017-02-17,0.0350237203291
2017-02-20,0.0340077403056
2017-02-21,0.0329429017123
2017-02-22,0.03232555159
2017-02-23,0.0331237264764
2017-02-24,0.0342006031567
2017-02-27,0.0354434172169
2017-02-28,0.0345474588443
2017-03-01,0.0329083546411
2017-03-02,0.0340006150239
2017-03-03,0.0364934282365
2017-03-06,0.0381510405053
2017-03-07,0.0374616804692
2017-03-08,0.0373787032928
2017-03-09,0.0394802244862
2017-03-10,0.0397673513086
2017-03-13,0.0412339690723
2017-03-14,0.0403743998528
2017-03-15,0.0400262284348
2017-03-16,0.0426457835466
2017-03-17,0.0417639418647
2017-03-20,0.0416665174458
2017-03-21,0.0413474804854
2017-03-22,0.0407583747364
2017-03-23,0.0421470622552
2017-03-24,0.0435722720941
2017-03-26,0.0437885383731
2017-03-27,0.0424536427751
2017-03-28,0.0413426682911
2017-03-29,0.0413967634132
2017-03-30,0.042196994598
2017-04-02,0.0425043521267
2017-04-03,0.0412683269748
2017-04-04,0.0412634464766
2017-04-05,0.0404160574425
2017-04-06,0.0392434819109
2017-04-09,0.0380403760601
2017-04-10,0.037194634913
2017-04-11,0.0358878752763
2017-04-12,0.034688741328
2017-04-13,0.0336824026617
2017-04-16,0.0345193739002
2017-04-17,0.0365179900502
2017-04-18,0.0371024193323
2017-04-19,0.0375879608086
2017-04-20,0.035645963608
2017-04-23,0.0381426804931
2017-04-24,0.0392610604579
2017-04-25,0.0409424132823
2017-04-26,0.0409250980479
2017-04-27,0.0415875910445
2017-04-30,0.0395813345413
2017-05-01,0.038668382074
2017-05-02,0.0386992119259
2017-05-03,0.0392706967883
2017-05-04,0.0385085041606
2017-05-07,0.0378507538634
2017-05-08,0.0365685571589
2017-05-09,0.0370065173618
2017-05-10,0.037256051836
2017-05-11,0.0379663338477
2017-05-14,0.0384044528586
2017-05-15,0.0420041347972
2017-05-16,0.0403609823117
2017-05-17,0.0595780550037
2017-05-18,0.0721796225035
2017-05-21,0.0769739351818
2017-05-22,0.0731329398117
2017-05-23,0.0696734441108
2017-05-24,0.0663181981029
2017-05-25,0.0644668982384
2017-05-28,0.0610906912214
2017-05-29,0.0631413561342
2017-05-30,0.0601669735531
2017-05-31,0.0585407611565
2017-06-01,0.0561378496453
2017-06-04,0.0556851460992
2017-06-05,0.0552647785207
2017-06-06,0.0534101514835
2017-06-07,0.0511594263775
2017-06-08,0.0492694673506
2017-06-11,0.0493359339684
2017-06-12,0.0567833672564
2017-06-13,0.0560345553095
2017-06-14,0.0551892299302
2017-06-15,0.0528542849352
2017-06-18,0.051807550297
2017-06-19,0.0509998681329
2017-06-20,0.0506713061234
2017-06-21,0.0485947842575
2017-06-22,0.0462665853819
2017-06-25,0.0454618292832
2017-06-26,0.0471216986201
2017-06-27,0.0450558630044
2017-06-28,0.0443518727898
2017-06-29,0.0434767390191
2017-07-02,0.0431855433749
2017-07-03,0.049536575991
2017-07-04,0.0496482491345
2017-07-05,0.0483876599106
2017-07-06,0.0466528270598
2017-07-09,0.0463633394127
2017-07-10,0.0463633394127
2017-07-11,0.0463633394127
2017-07-12,0.0469806338026
2017-07-13,0.0454340276184
2017-07-16,0.0446043769251
2017-07-17,0.0433626004581
2017-07-18,0.0425761986836
2017-07-19,0.0413245073967
2017-07-20,0.0422329648463
2017-07-23,0.0413567496677
2017-07-24,0.0411832888449
2017-07-25,0.0402977734895
2017-07-26,0.0414237178875
2017-07-27,0.0397259112891
2017-07-30,0.03903789401
2017-07-31,0.0412127750662
2017-08-01,0.0391991672957
2017-08-02,0.0387220012068
2017-08-03,0.0375904947576
2017-08-06,0.0365016602236
2017-08-07,0.0348679170158
2017-08-08,0.0340886830959
2017-08-09,0.0340159495607
2017-08-10,0.0332072779236
2017-08-13,0.0329503205144
2017-08-14,0.0323030980965
2017-08-15,0.0316677229648
2017-08-16,0.0322094666485
2017-08-17,0.0315318840437
2017-08-20,0.0320601722647
2017-08-21,0.0319469124088
2017-08-22,0.030681838234
2017-08-23,0.0304296431419
2017-08-24,0.0292552821352
2017-08-27,0.0281163051789
2017-08-28,0.0272050369573
2017-08-29,0.025905584489
2017-08-30,0.0259268171532
2017-08-31,0.02665277466
2017-09-03,0.025539830953
2017-09-04,0.0283153735563
2017-09-05,0.0284941173051
2017-09-06,0.0279336959298
2017-09-07,0.0269322948937
2017-09-10,0.0264486644876
2017-09-11,0.0313927426651
2017-09-12,0.0318741948567
2017-09-13,0.0315818489227
2017-09-14,0.0304784772287
2017-09-17,0.0300641009174
2017-09-18,0.0297727451205
2017-09-19,0.0286494582425
2017-09-20,0.0274492932565
2017-09-21,0.0266290909355
2017-09-24,0.0270782311634
2017-09-25,0.0285334509909
2017-09-26,0.0295691980858
2017-09-27,0.0296573038323
2017-09-28,0.0300683252069
2017-10-01,0.0296483728065
2017-10-02,0.0292155937275
2017-10-03,0.0293861838718
2017-10-04,0.0287862713857
2017-10-05,0.0294167010242
2017-10-08,0.0318400691722
2017-10-09,0.03184435509
2017-10-10,0.0322845346184
2017-10-11,0.0320854332289
2017-10-12,0.0318147850419
2017-10-15,0.0324214131667
2017-10-16,0.0325271140997
2017-10-17,0.0327467749676
2017-10-18,0.0319357115459
2017-10-19,0.0317616166459
2017-10-22,0.0330294250794
2017-10-23,0.03579319004
2017-10-24,0.0357436501503
2017-10-25,0.0353760652549
2017-10-26,0.0375359069934
2017-10-30,0.0386766845315
2017-10-31,0.0397287654181
2017-11-01,0.0389049800765
2017-11-02,0.0380686252718
2017-11-03,0.0411361219845
2017-11-06,0.041705137486
2017-11-07,0.0420548658737
2017-11-08,0.0414293599529
2017-11-09,0.0408342657728
2017-11-10,0.0396172668407
2017-11-13,0.0401447118371
2017-11-14,0.0398557494596
2017-11-15,0.0396731640149
2017-11-16,0.0396731640149
2017-11-17,0.0396731640149
2017-11-20,0.0396731640149
2017-11-21,0.0380010634273
2017-11-22,0.0375523842759
2017-11-23,0.0374714263948
2017-11-24,0.0356539126381
2017-11-27,0.034348913888
2017-11-28,0.0341155817085
2017-11-29,0.033700947263
2017-11-30,0.0371047670214
2017-12-01,0.0369293201411
2017-12-04,0.0362087151433
2017-12-05,0.0363568880488
2017-12-06,0.0350608664251
2017-12-07,0.0389527767081
2017-12-08,0.0416696160144
2017-12-11,0.0401888836426
2017-12-12,0.0403951033012
2017-12-13,0.0403576173072
2017-12-14,0.0404286639521
2017-12-15,0.0398783330976
2017-12-18,0.041525967082
2017-12-19,0.0402265828635
2017-12-20,0.0403138062011
2017-12-21,0.039245490757
2017-12-22,0.0399517481203
2017-12-25,0.0391884605781
2017-12-26,0.0383506633355
2017-12-27,0.0386405785558
2017-12-28,0.0384910785815
2017-12-29,0.0379651997914
2018-01-01,0.0353687563388
2018-01-02,0.0367413704201
2018-01-03,0.0391620620096
2018-01-04,0.0389613005531
2018-01-05,0.0377517881098
2018-01-08,0.036464612947
2018-01-09,0.0357718355464
2018-01-10,0.034507595388
2018-01-11,0.0339287142673
2018-01-12,0.0337532902374
2018-01-15,0.0340669983451
2018-01-16,0.034141496177
2018-01-17,0.0334250309282
2018-01-18,0.0326021763539
2018-01-19,0.0317742569882
2018-01-22,0.0311790090727
2018-01-23,0.0319354997528
2018-01-24,0.034132136515
2018-01-25,0.0398696250235
2018-01-26,0.0386654332434
2018-01-29,0.0377204094414
2018-01-30,0.0384652012998
2018-01-31,0.0385250830573
2018-02-01,0.038078681009
2018-02-02,0.0395570238734
2018-02-05,0.0425846322908
2018-02-06,0.0438683381572
2018-02-07,0.0429894619811
2018-02-08,0.0441505056276
2018-02-09,0.0436814313593
2018-02-12,0.0428021305399
2018-02-13,0.0400173614402
2018-02-14,0.040574387073
2018-02-15,0.0450130966309
2018-02-16,0.0439317101124
2018-02-19,0.0418403553719
2018-02-20,0.040793046085
2018-02-21,0.0400067342261
2018-02-22,0.0387260267758
2018-02-23,0.038581136716
2018-02-26,0.0374812585613
2018-02-27,0.0371250858626
2018-02-28,0.0366514103597
2018-03-01,0.0363903624464
2018-03-02,0.0352400979611
2018-03-05,0.0336431482551
2018-03-06,0.0336186201453
2018-03-07,0.0337102080249
2018-03-08,0.0353890843108
2018-03-09,0.0349038722257
2018-03-12,0.0335743181533
2018-03-13,0.0330187357475
2018-03-14,0.0327672823411
2018-03-15,0.0330268725481
2018-03-16,0.0334322559893
2018-03-19,0.0324438753495
2018-03-20,0.0318262454232
2018-03-21,0.031660032494
2018-03-22,0.0323559487325
2018-03-23,0.0330521421529
2018-03-25,0.0324339755432
2018-03-26,0.0317385281329
2018-03-27,0.0318072196855
2018-03-28,0.0306064606678
2018-03-29,0.0296915413179
2018-04-01,0.0289634468623
2018-04-02,0.0285088411849
2018-04-03,0.0305513745396
2018-04-04,0.0312692339275
2018-04-05,0.0330216591521
2018-04-08,0.0345131491246
2018-04-09,0.0368267547616
2018-04-10,0.0363533658991
2018-04-11,0.0368210277873
2018-04-12,0.0380053462991
2018-04-15,0.0383978542497
2018-04-16,0.0377122402154
2018-04-17,0.0377399393317
2018-04-18,0.0382728363389
2018-04-19,0.0384819324032
2018-04-22,0.0403261861149
2018-04-23,0.0420601225277
2018-04-24,0.0450059740888
2018-04-25,0.0449984041626
2018-04-26,0.0433270181413
2018-04-29,0.042646489836
2018-04-30,0.0430146112716
2018-05-01,0.0446707671428
2018-05-02,0.045644314712
2018-05-03,0.0453554265654
2018-05-06,0.0453586104694
2018-05-07,0.0468258899101
2018-05-08,0.0470740464936
2018-05-09,0.0470901863838
2018-05-10,0.0475408965377
2018-05-13,0.0495237271488
2018-05-14,0.0522292227305
2018-05-15,0.0530985781432
2018-05-16,0.0533772553536
2018-05-17,0.0560789179651
2018-05-20,0.055223269794
2018-05-21,0.0588716519058
2018-05-22,0.0573379452148
2018-05-23,0.0569495164954
2018-05-24,0.0564816893466
2018-05-27,0.058911590585
2018-05-28,0.0643108078844
2018-05-29,0.0662814797827
2018-05-30,0.0639184998849
2018-05-31,0.0638886068356
2018-06-03,0.0624822690232
2018-06-04,0.0624835355289
2018-06-05,0.0649490105076
2018-06-06,0.0701455356517
2018-06-07,0.0766708847275
2018-06-10,0.087373010373
2018-06-11,0.0851677865481
2018-06-12,0.0808057856345
2018-06-13,0.0775482183113
2018-06-14,0.078130490292
2018-06-17,0.0781354552858
2018-06-18,0.0768043476705
2018-06-19,0.0746183172459
2018-06-20,0.0732455770396
2018-06-21,0.0710208880592
2018-06-24,0.0678979610885
2018-06-25,0.0659981031124
2018-06-26,0.0670982405469
2018-06-27,0.0677697958946
2018-06-28,0.0660076649337
2018-07-01,0.0654785452618
2018-07-02,0.0637157897148
2018-07-03,0.0617075165729
2018-07-04,0.0605498355073
2018-07-05,0.0600605610283
2018-07-08,0.0624633804427
2018-07-09,0.062294567401
2018-07-10,0.0620949552758
2018-07-11,0.0620810298881
2018-07-12,0.0607109553305
2018-07-15,0.0610458873183
2018-07-16,0.0599068946544
2018-07-17,0.0576206865652
2018-07-18,0.0573549230957
2018-07-19,0.0596010011426
2018-07-22,0.0600795012835
2018-07-23,0.0596023938429
2018-07-24,0.0612665092358
2018-07-25,0.0624117590027
2018-07-26,0.062182347566
2018-07-29,0.0618621797799
2018-07-30,0.0610720238457
2018-07-31,0.059531164573
2018-08-01,0.0587432240437
2018-08-02,0.0579187078438
2018-08-05,0.0578959429927
2018-08-06,0.0562105181463
2018-08-07,0.0547169094218
2018-08-08,0.0561728447215
2018-08-09,0.0591676420207
2018-08-12,0.0630413824692
2018-08-13,0.060409854776
2018-08-14,0.0606234366059
2018-08-15,0.0601503339332
2018-08-16,0.0610324530384
2018-08-19,0.0602444205952
2018-08-20,0.062034105014
2018-08-21,0.0663888121954
2018-08-22,0.0670538970949
2018-08-23,0.0678500473649
2018-08-26,0.067503615385
2018-08-27,0.0689890715296
2018-08-28,0.069754137897
2018-08-29,0.0725859853555
2018-08-30,0.0722869863853
2018-09-02,0.0755522018079
2018-09-03,0.0795199018643
2018-09-04,0.077775623084
2018-09-06,0.0739059355648
