Date,atr
2010-01-04,
2010-01-05,1.01603506994
2010-01-06,0.786588652709
2010-01-07,0.887457235744
2010-01-08,0.750764689935
2010-01-11,0.701473353706
2010-01-12,0.690516971449
2010-01-13,0.627609041712
2010-01-14,0.657217217108
2010-01-15,0.680842735956
2010-01-18,0.630675265779
2010-01-19,0.699398624457
2010-01-20,0.7579944371
2010-01-21,0.775773044062
2010-01-22,0.870887357598
2010-01-25,0.831473559136
2010-01-26,0.833322007086
2010-01-27,0.9273348231
2010-01-28,0.931392944192
2010-01-29,0.876385990785
2010-02-01,0.93981249655
2010-02-02,0.895817435622
2010-02-03,0.92776714139
2010-02-04,1.1050066662
2010-02-05,1.08572763941
2010-02-08,1.02734386557
2010-02-09,0.974171275938
2010-02-10,0.960429411751
2010-02-11,0.942008419642
2010-02-12,0.951361257381
2010-02-15,0.879814566318
2010-02-16,0.834408262499
2010-02-17,0.843385510097
2010-02-18,0.816173788923
2010-02-19,0.786406310184
2010-02-22,0.732597183091
2010-02-23,0.731975923359
2010-02-24,0.684107022045
2010-02-25,0.707347593867
2010-02-26,0.714157295576
2010-03-01,0.694548243795
2010-03-02,0.71788600127
2010-03-03,0.709819028424
2010-03-04,0.679883075473
2010-03-05,0.645302226873
2010-03-08,0.650782799752
2010-03-09,0.655844091264
2010-03-10,0.645174693004
2010-03-11,0.626510193556
2010-03-12,0.613455832537
2010-03-15,0.59185208782
2010-03-16,0.573007983104
2010-03-17,0.5426536028
2010-03-18,0.615456997173
2010-03-19,0.618466961625
2010-03-22,0.621254217235
2010-03-23,0.636303410585
2010-03-24,0.667226409768
2010-03-25,0.677028617807
2010-03-26,0.651464403494
2010-03-28,0.621374730912
2010-03-29,0.641980105356
2010-03-30,0.627649791819
2010-03-31,0.597846742175
2010-04-01,0.560083092285
2010-04-04,0.523563002862
2010-04-05,0.522288514107
2010-04-06,0.583641929754
2010-04-07,0.649161971633
2010-04-08,0.60856147234
2010-04-11,0.602679794386
2010-04-12,0.614043365251
2010-04-13,0.577507003794
2010-04-14,0.57161891088
2010-04-15,0.58855919315
2010-04-18,0.582628826442
2010-04-19,0.575259277877
2010-04-20,0.549018966267
2010-04-21,0.578377530088
2010-04-22,0.549688372661
2010-04-25,0.551023137769
2010-04-26,0.59550378807
2010-04-27,0.558523504099
2010-04-28,0.555126022302
2010-04-29,0.537068642895
2010-05-02,0.505404544977
2010-05-03,0.601538520534
2010-05-04,0.668809062592
2010-05-05,0.811325839702
2010-05-06,0.813680030323
2010-05-09,0.861289188548
2010-05-10,0.875706118262
2010-05-11,0.816872643916
2010-05-12,0.762994896012
2010-05-13,0.874509219281
2010-05-16,0.896536764539
2010-05-17,0.905451460368
2010-05-18,0.982572995213
2010-05-19,1.17325394706
2010-05-20,1.16722602898
2010-05-23,1.10544560153
2010-05-24,1.1876060287
2010-05-25,1.20808460796
2010-05-26,1.15269254899
2010-05-27,1.12618604693
2010-05-30,1.17932402026
2010-05-31,1.00695367029
2010-06-01,0.939157182178
2010-06-02,0.936466818049
2010-06-03,0.804896065322
2010-06-06,0.795804426755
2010-06-07,0.743100326558
2010-06-08,0.727265796604
2010-06-09,0.679832323859
2010-06-10,0.685999234098
2010-06-13,0.660111764273
2010-06-14,0.618593838631
2010-06-15,0.628391581984
2010-06-16,0.603273426297
2010-06-17,0.59147909127
2010-06-20,0.567138940433
2010-06-21,0.545281631138
2010-06-22,0.581142235426
2010-06-23,0.604771569162
2010-06-24,0.611837138819
2010-06-27,0.606125647919
2010-06-28,0.678174208952
2010-06-29,0.637601573358
2010-06-30,0.487619628793
2010-07-01,0.499706657353
2010-07-04,0.49122076647
2010-07-05,0.469209854598
2010-07-06,0.459555649918
2010-07-07,0.463606606319
2010-07-08,0.461418258878
2010-07-11,0.456411286702
2010-07-12,0.434656079637
2010-07-13,0.47023490579
2010-07-14,0.494347426815
2010-07-15,0.562104965304
2010-07-18,0.55325270305
2010-07-19,0.54280160703
2010-07-20,0.528634716296
2010-07-21,0.500233488574
2010-07-22,0.502494281
2010-07-25,0.471498045826
2010-07-26,0.473580247461
2010-07-27,0.45506147832
2010-07-28,0.435262517336
2010-07-29,0.443651583065
2010-08-01,0.442888689589
2010-08-02,0.458170144123
2010-08-03,0.440380360551
2010-08-04,0.435760710868
2010-08-05,0.439280020737
2010-08-08,0.423955158273
2010-08-09,0.458066163078
2010-08-10,0.507217818468
2010-08-11,0.495221057488
2010-08-12,0.484081221589
2010-08-15,0.455144371369
2010-08-16,0.435339700561
2010-08-17,0.425874168065
2010-08-18,0.438652287705
2010-08-19,0.443080596607
2010-08-22,0.437896250617
2010-08-23,0.478076507298
2010-08-24,0.460724255211
2010-08-25,0.436802538527
2010-08-26,0.42946366037
2010-08-29,0.43901053195
2010-08-30,0.479482993438
2010-08-31,0.467608095724
2010-09-01,0.467736998021
2010-09-02,0.502067157045
2010-09-05,0.5064280425
2010-09-06,0.499321852481
2010-09-07,0.472271351946
2010-09-08,0.468720490105
2010-09-09,0.448689896007
2010-09-12,0.436039703978
2010-09-13,0.430242739779
2010-09-14,0.446055435456
2010-09-15,0.419463031676
2010-09-16,0.440507932982
2010-09-19,0.41691475099
2010-09-20,0.461196512929
2010-09-21,0.497853058061
2010-09-22,0.498052717355
2010-09-23,0.469977344709
2010-09-26,0.477002206774
2010-09-27,0.462701568945
2010-09-28,0.454628337208
2010-09-29,0.467955486862
2010-09-30,0.507847755138
2010-10-03,0.510680176251
2010-10-04,0.540827338211
2010-10-05,0.642447846506
2010-10-06,0.617445218378
2010-10-07,0.607987020794
2010-10-10,0.621515533625
2010-10-11,0.585365103183
2010-10-12,0.600137615045
2010-10-13,0.635050513444
2010-10-14,0.611319974273
2010-10-17,0.616057820704
2010-10-18,0.736846932832
2010-10-19,0.689111879758
2010-10-20,0.725850213346
2010-10-21,0.695633982105
2010-10-24,0.663485681861
2010-10-25,0.676024817191
2010-10-26,0.685809039756
2010-10-27,0.642463258688
2010-10-28,0.664684739131
2010-11-01,0.677138226982
2010-11-02,0.663416245261
2010-11-03,0.631338102589
2010-11-04,0.641711269311
2010-11-05,0.680719801042
2010-11-08,0.718057564499
2010-11-09,0.677614247421
2010-11-10,0.692119014
2010-11-11,0.699266242337
2010-11-12,0.681360724961
2010-11-15,0.650975650818
2010-11-16,0.653996503698
2010-11-17,0.614782310428
2010-11-18,0.626709885218
2010-11-19,0.653031420359
2010-11-22,0.63173505567
2010-11-23,0.64059246018
2010-11-24,0.600104587526
2010-11-25,0.615683534598
2010-11-26,0.636471182778
2010-11-29,0.62044806391
2010-11-30,0.632342793714
2010-12-01,0.612896040392
2010-12-02,0.617521309576
2010-12-03,0.624419165986
2010-12-06,0.656482102462
2010-12-07,0.634195557059
2010-12-08,0.633209060775
2010-12-09,0.64791081009
2010-12-10,0.644085393154
2010-12-13,0.611900620794
2010-12-14,0.625149585981
2010-12-15,0.60324181793
2010-12-16,0.569140368687
2010-12-17,0.574659931325
2010-12-20,0.538137822198
2010-12-21,0.505339991016
2010-12-22,0.529918949155
2010-12-23,0.50663262692
2010-12-24,0.499139987128
2010-12-27,0.482514385485
2010-12-28,0.481206700507
2010-12-29,0.45173167426
2010-12-30,0.482742761403
2010-12-31,0.485880987121
2011-01-03,0.474292828264
2011-01-04,0.524144260969
2011-01-05,0.525440792519
2011-01-06,0.564945464282
2011-01-07,0.539529100132
2011-01-10,0.55571634792
2011-01-11,0.543230320325
2011-01-12,0.53944504254
2011-01-13,0.511016061923
2011-01-14,0.543370328914
2011-01-17,0.511686155208
2011-01-18,0.478918469339
2011-01-19,0.488279489766
2011-01-20,0.472057786075
2011-01-21,0.452532552261
2011-01-24,0.432170866386
2011-01-25,0.425534700576
2011-01-26,0.404870321062
2011-01-27,0.407993084886
2011-01-28,0.43655057781
2011-01-31,0.414355646052
2011-02-01,0.391514954944
2011-02-02,0.395219821554
2011-02-03,0.393454127716
2011-02-04,0.402598261039
2011-02-07,0.404395907116
2011-02-08,0.396396999542
2011-02-09,0.390828702193
2011-02-10,0.422471482123
2011-02-11,0.425824427902
2011-02-14,0.421872690753
2011-02-15,0.40927877406
2011-02-16,0.392378495729
2011-02-17,0.385237974685
2011-02-18,0.413561572919
2011-02-21,0.435399833751
2011-02-22,0.43559821422
2011-02-23,0.446194278887
2011-02-24,0.42145125167
2011-02-25,0.28543259476
2011-02-28,0.126034733833
2011-03-01,-0.037967198875
2011-03-02,-0.18839544813
2011-03-03,-0.319526227889
2011-03-04,-0.415260887803
2011-03-07,-0.546920330448
2011-03-08,-0.627156258334
2011-03-09,-0.706866975627
2011-03-10,-0.789064812864
2011-03-11,-0.872828414745
2011-03-14,-0.954699273508
2011-03-15,-0.979778498456
2011-03-16,-1.04136709968
2011-03-17,-1.09855651509
2011-03-18,-1.14273652578
2011-03-21,-1.14285710839
2011-03-22,-1.21510835367
2011-03-23,-1.26620916244
2011-03-24,-1.31960954442
2011-03-25,-1.35952746306
2011-03-27,-1.39138817467
2011-03-28,-1.42171682505
2011-03-29,-1.35356949164
2011-03-30,-1.2891742691
2011-03-31,-1.24536833859
2011-04-03,-1.23406770612
2011-04-04,-1.28567353511
2011-04-05,-1.32987471409
2011-04-06,-1.32257791423
2011-04-07,-1.21837710694
2011-04-10,-1.19524589793
2011-04-11,-1.21467063117
2011-04-12,-1.23233603153
2011-04-13,-1.26658851053
2011-04-14,-1.26658851053
2011-04-17,-1.26658851053
2011-04-18,-1.28770940263
2011-04-19,-1.25204278754
2011-04-20,-1.26137466786
2011-04-21,-1.30923872274
2011-04-24,-1.3529376638
2011-04-25,-1.41328082147
2011-04-26,-1.4057286455
2011-04-27,-1.3625832983
2011-04-28,-1.37782645065
2011-05-01,-1.37510670748
2011-05-02,-1.33340407671
2011-05-03,-1.29978143306
2011-05-04,-1.2503904381
2011-05-05,-1.25807040361
2011-05-08,-1.24060881156
2011-05-09,-1.27769030334
2011-05-10,-1.29061573632
2011-05-11,-1.29405691933
2011-05-12,-1.26837304437
2011-05-15,-1.27957836386
2011-05-16,-1.32133788751
2011-05-17,-1.31752274323
2011-05-18,-1.33802331563
2011-05-19,-1.37488042722
2011-05-22,-1.37021784421
2011-05-23,-1.36742031574
2011-05-24,-1.37354540684
2011-05-25,-1.40608315362
2011-05-26,-1.35685448391
2011-05-29,-1.30898782097
2011-05-30,-1.3208238872
2011-05-31,-1.31446364229
2011-06-01,-1.33942944171
2011-06-02,-1.22419470948
2011-06-05,-1.26014251285
2011-06-06,-1.25029540718
2011-06-07,-1.29631657711
2011-06-08,-1.32699561087
2011-06-09,-1.33671217179
2011-06-12,-1.36295200948
2011-06-13,-1.36932423483
2011-06-14,-1.38346665915
2011-06-15,-1.33413221777
2011-06-16,-1.37359317526
2011-06-19,-1.38666443804
2011-06-20,-1.40514358077
2011-06-21,-1.43125350185
2011-06-22,-1.48796186701
2011-06-23,-1.52043530701
2011-06-26,-1.53975248144
2011-06-27,-1.5427598037
2011-06-28,-1.48960982591
2011-06-29,-1.46786959616
2011-06-30,-1.45701015288
2011-07-03,-1.48792975381
2011-07-04,-1.49687978682
2011-07-05,-1.49363714795
2011-07-06,-1.50143096388
2011-07-07,-1.48780608832
2011-07-10,-1.41817233994
2011-07-11,-1.41348598779
2011-07-12,-1.42551963733
2011-07-13,-1.45865909009
2011-07-14,-1.4905424274
2011-07-17,-1.50785829974
2011-07-18,-1.54217428464
2011-07-19,-1.55467932943
2011-07-20,-1.56293984317
2011-07-21,-1.5720979452
2011-07-24,-1.56534318149
2011-07-25,-1.51851077604
2011-07-26,-1.44935333724
2011-07-27,-1.39109533857
2011-07-28,-1.37234972656
2011-07-31,-1.37131474588
2011-08-01,-1.34840367689
2011-08-02,-1.39186255598
2011-08-03,-1.33437581541
2011-08-04,-1.2910426089
2011-08-07,-1.25378289658
2011-08-08,-1.10610497941
2011-08-09,-1.04486420352
2011-08-10,-1.0724356182
2011-08-11,-1.09022551033
2011-08-14,-1.06025076486
2011-08-15,-1.01047369518
2011-08-16,-1.05649315836
2011-08-17,-1.05942790894
2011-08-18,-1.07740175208
2011-08-21,-1.08553719356
2011-08-22,-1.12991065344
2011-08-23,-1.18078319585
2011-08-24,-1.2001281305
2011-08-25,-1.23631402397
2011-08-28,-1.25652627781
2011-08-29,-1.27157552719
2011-08-30,-1.27699611346
2011-08-31,-1.2656663713
2011-09-01,-1.14097726098
2011-09-04,-1.02705547123
2011-09-05,-1.00234225239
2011-09-06,-1.0775704895
2011-09-07,-1.12622756263
2011-09-08,-1.12120556295
2011-09-11,-1.03882079613
2011-09-12,-0.982774256861
2011-09-13,-0.972380936202
2011-09-14,-1.01256052044
2011-09-15,-1.02197979185
2011-09-18,-0.813184183259
2011-09-19,-0.60554465976
2011-09-20,-0.460336262542
2011-09-21,0.00880493892796
2011-09-22,0.147315533197
2011-09-25,0.212715388554
2011-09-26,0.263403320933
2011-09-27,0.256178843231
2011-09-28,0.194063268751
2011-09-29,0.173942519695
2011-10-02,0.22516851034
2011-10-03,0.231459077952
2011-10-04,0.265189654336
2011-10-05,0.266390364853
2011-10-06,0.382781029805
2011-10-09,0.45441588447
2011-10-10,0.359176280426
2011-10-11,0.264418110254
2011-10-12,0.198739877375
2011-10-13,0.200968484618
2011-10-16,0.0925968815207
2011-10-17,0.11058800294
2011-10-18,0.0287524940712
2011-10-19,0.00816880495618
2011-10-20,-0.0589138216156
2011-10-23,-0.0758385513439
2011-10-24,-0.116840435161
2011-10-25,-0.185405602826
2011-10-26,-0.168380935342
2011-10-27,-0.0480814493842
2011-10-31,-0.053136870501
2011-11-01,0.0399662625295
2011-11-02,0.0509328977022
2011-11-03,-0.00879220846695
2011-11-04,-0.0549548791906
2011-11-07,-0.123106202692
2011-11-08,-0.21465037171
2011-11-09,-0.256892554646
2011-11-10,-0.257816583447
2011-11-11,-0.33081404474
2011-11-14,-0.375914364872
2011-11-15,-0.410728020605
2011-11-16,-0.471687627216
2011-11-17,-0.521971468089
2011-11-18,-0.579447317269
2011-11-21,-0.537623506185
2011-11-22,-0.538575327798
2011-11-23,-0.473269436544
2011-11-24,-0.337142234164
2011-11-25,-0.294405198331
2011-11-28,-0.282981588882
2011-11-29,-0.241882066623
2011-11-30,-0.165417447939
2011-12-01,-0.100736084463
2011-12-02,-0.100914882809
2011-12-05,-0.169501712291
2011-12-06,-0.255128754151
2011-12-07,-0.330549197673
2011-12-08,-0.347779457117
2011-12-09,-0.383487144982
2011-12-12,-0.372765732305
2011-12-13,-0.32859974255
2011-12-14,-0.225489170637
2011-12-15,-0.272162990081
2011-12-16,-0.279061460482
2011-12-19,-0.340501286976
2011-12-20,-0.37375402067
2011-12-21,-0.417274527083
2011-12-22,-0.488921994949
2011-12-23,-0.512316949044
2011-12-26,-0.623285318815
2011-12-27,-0.667574754975
2011-12-28,-0.687876946289
2011-12-29,-0.71974380064
2011-12-30,-0.725535922458
2012-01-02,-0.78780767618
2012-01-03,-0.753412152773
2012-01-04,-0.659374171515
2012-01-05,-0.688071009096
2012-01-06,-0.679020282094
2012-01-09,-0.725650128181
2012-01-10,-0.635826263898
2012-01-11,-0.591834700016
2012-01-12,-0.641717271479
2012-01-13,-0.624821967338
2012-01-16,-0.726266839421
2012-01-17,-0.747954515626
2012-01-18,-0.797841228707
2012-01-19,-0.826687562661
2012-01-20,-0.903673458134
2012-01-23,-0.92867886607
2012-01-24,-0.987595960858
2012-01-25,-1.01924987028
2012-01-26,-1.0107138869
2012-01-27,-1.00985280374
2012-01-30,-0.669180544566
2012-01-31,-0.72432211657
2012-02-01,-0.76771611371
2012-02-02,-0.795367573247
2012-02-03,-0.812119481714
2012-02-06,-0.848498534185
2012-02-07,-0.907193163102
2012-02-08,-0.960951614456
2012-02-09,-0.996739802408
2012-02-10,-1.03554947028
2012-02-13,-1.06824035143
2012-02-14,-1.12574136136
2012-02-15,-1.16909515375
2012-02-16,-1.18518187038
2012-02-17,-1.18896397757
2012-02-20,-1.25531891225
2012-02-21,-1.2764023471
2012-02-22,-1.32238131006
2012-02-23,-1.31710716104
2012-02-24,-1.34753567125
2012-02-27,-1.36649441791
2012-02-28,-1.37852118927
2012-02-29,-1.31940888901
2012-03-01,-1.29575445885
2012-03-02,-1.30502519373
2012-03-05,-1.27942335489
2012-03-06,-1.248585032
2012-03-07,-1.11471534792
2012-03-08,-1.10940040447
2012-03-09,-1.12119843706
2012-03-12,-1.00386483439
2012-03-13,-0.983412964639
2012-03-14,-0.961818979173
2012-03-15,-0.990480025104
2012-03-16,-1.00593829532
2012-03-19,-1.05450278165
2012-03-20,-1.02783095211
2012-03-21,-1.01384795946
2012-03-22,-1.05403857906
2012-03-23,-1.07722806648
2012-03-25,-1.05934485658
2012-03-26,-1.09070791873
2012-03-27,-1.11165001953
2012-03-28,-1.10395106456
2012-03-29,-1.108329445
2012-04-01,-1.15552990869
2012-04-02,-1.17630409058
2012-04-03,-1.13535438853
2012-04-04,-1.1415800457
2012-04-05,-1.20871658269
2012-04-08,-1.26101765045
2012-04-09,-1.20248956979
2012-04-10,-1.20763837624
2012-04-11,-1.21353496661
2012-04-12,-1.18851851313
2012-04-15,-1.15785191045
2012-04-16,-1.16842023276
2012-04-17,-1.15146033545
2012-04-18,-1.12976222839
2012-04-19,-1.12597547134
2012-04-22,-1.07932437227
2012-04-23,-1.06649735338
2012-04-24,-1.10032433835
2012-04-25,-1.10012769549
2012-04-26,-1.11667843569
2012-04-29,-1.11047956784
2012-04-30,-1.12145681341
2012-05-01,-1.12049441191
2012-05-02,-1.10584223172
2012-05-03,-1.06323218475
2012-05-06,-1.07126276048
2012-05-07,-1.02368563701
2012-05-08,-0.922613533189
2012-05-09,-0.895322362031
2012-05-10,-0.868865004432
2012-05-13,-0.823473749633
2012-05-14,-0.811816586133
2012-05-15,-0.841152086336
2012-05-16,-0.86690478592
2012-05-17,-0.859954296214
2012-05-20,-0.817430632196
2012-05-21,-0.790959190536
2012-05-22,-0.648129650262
2012-05-23,-0.492075547995
2012-05-24,-0.450543005728
2012-05-27,-0.354711875369
2012-05-28,-0.367985108346
2012-05-29,-0.40894285238
2012-05-30,-0.423548371256
2012-05-31,-0.429673600049
2012-06-03,-0.488907991386
2012-06-04,-0.465450596125
2012-06-05,-0.426935391945
2012-06-06,-0.528384638421
2012-06-07,-0.56048823672
2012-06-10,-0.558319454298
2012-06-11,-0.534738172577
2012-06-12,-0.59204573064
2012-06-13,-0.638566556837
2012-06-14,-0.628961491865
2012-06-17,-0.624876578141
2012-06-18,-0.639304188866
2012-06-19,-0.569034570212
2012-06-20,-0.559562000537
2012-06-21,-0.542957152311
2012-06-24,-0.568442077709
2012-06-25,-0.571282942838
2012-06-26,-0.609618674952
2012-06-27,-0.612121318121
2012-06-28,-0.47537257674
2012-07-01,-0.256916026175
2012-07-02,-0.287214679242
2012-07-03,-0.268123946844
2012-07-04,-0.312496111616
2012-07-05,-0.315026234632
2012-07-08,-0.34823934532
2012-07-09,-0.410687505578
2012-07-10,-0.474252862011
2012-07-11,-0.486424491819
2012-07-12,-0.5423489519
2012-07-15,-0.640388447839
2012-07-16,-0.721385120349
2012-07-17,-0.77540075586
2012-07-18,-0.809568498413
2012-07-19,-0.805597902005
2012-07-22,-0.773278320501
2012-07-23,-0.818753223681
2012-07-24,-0.878456960515
2012-07-25,-0.882208725519
2012-07-26,-0.913953254496
2012-07-29,-0.891742897918
2012-07-30,-0.887480480595
2012-07-31,-0.911783268842
2012-08-01,-0.896421246099
2012-08-02,-0.894427624606
2012-08-05,-0.85427565517
2012-08-06,-0.889874663141
2012-08-07,-0.906197547678
2012-08-08,-0.955193038129
2012-08-09,-1.02262811496
2012-08-12,-1.00492638226
2012-08-13,-1.01377499073
2012-08-14,-1.03017229835
2012-08-15,-1.03907688678
2012-08-16,-1.0413958022
2012-08-19,-1.04801130404
2012-08-20,-1.05824464134
2012-08-21,-1.06477221049
2012-08-22,-1.11062168192
2012-08-23,-1.11489544162
2012-08-26,-1.1210950444
2012-08-27,-1.09487255185
2012-08-28,-1.09320606262
2012-08-29,-1.10392972224
2012-08-30,-1.09120443804
2012-09-02,-1.05521772683
2012-09-03,-1.05080594605
2012-09-04,-1.08315078227
2012-09-05,-1.10612008624
2012-09-06,-1.09361019941
2012-09-09,-1.05931090778
2012-09-10,-1.07319935377
2012-09-11,-1.08683947177
2012-09-12,-1.11289196535
2012-09-13,-1.11886282164
2012-09-16,-1.07271976899
2012-09-17,-1.08639414305
2012-09-18,-1.08496140251
2012-09-19,-1.1040828571
2012-09-20,-1.16906368947
2012-09-23,-1.17176598362
2012-09-24,-1.19584266909
2012-09-25,-1.19737588285
2012-09-26,-1.21627662238
2012-09-27,-1.25911324077
2012-09-30,-1.2683982419
2012-10-01,-1.28706003095
2012-10-02,-1.30029846377
2012-10-03,-1.30589795938
2012-10-04,-1.29547970968
2012-10-07,-1.30588562525
2012-10-08,-1.24712750479
2012-10-09,-1.25726862992
2012-10-10,-1.27560983544
2012-10-11,-1.29226910292
2012-10-14,-1.30550731111
2012-10-15,-1.29548881679
2012-10-16,-1.29734148731
2012-10-17,-1.30538330715
2012-10-18,-1.30429811674
2012-10-21,-1.31556155384
2012-10-22,-1.30631230707
2012-10-23,-1.31668816956
2012-10-24,-1.3211169719
2012-10-25,-1.31518942893
2012-10-29,-1.27287194015
2012-10-30,-1.32505270557
2012-10-31,-1.31252255584
2012-11-01,-1.36856446928
2012-11-02,-1.41985968503
2012-11-05,-1.39088945784
2012-11-06,-1.38369668524
2012-11-07,-1.37218360693
2012-11-08,-1.41169290281
2012-11-09,-1.37586897848
2012-11-12,-1.35747798335
2012-11-13,-1.36233989499
2012-11-14,-1.33673452036
2012-11-15,-1.33043514208
2012-11-16,-1.3134301613
2012-11-19,-1.24632425473
2012-11-20,-1.25577905099
2012-11-21,-1.25154368687
2012-11-22,-1.23310862323
2012-11-23,-1.20409108788
2012-11-26,-1.11430325632
2012-11-27,-1.14769034943
2012-11-28,-1.14745708748
2012-11-29,-1.10819603376
2012-11-30,-1.13012009507
2012-12-03,-1.03780701519
2012-12-04,-0.947625503481
2012-12-05,-0.941974435033
2012-12-06,-0.845623289842
2012-12-07,-0.852092168973
2012-12-10,-0.873344914713
2012-12-11,-0.890104791693
2012-12-12,-0.916451240766
2012-12-13,-0.930503946393
2012-12-14,-0.9695825229
2012-12-17,-0.973518654022
2012-12-18,-0.973083261618
2012-12-19,-0.942930813736
2012-12-20,-0.882580993639
2012-12-21,-0.898309298758
2012-12-24,-0.894693408614
2012-12-25,-0.894682463768
2012-12-26,-0.83926636213
2012-12-27,-0.748764100114
2012-12-28,-0.771447791214
2012-12-31,-0.815194186802
2013-01-01,-0.889654366087
2013-01-02,-0.93945966043
2013-01-03,-0.96860224466
2013-01-04,-0.991200992491
2013-01-07,-0.965704051962
2013-01-08,-0.952440175698
2013-01-09,-0.9769370609
2013-01-10,-0.961755271044
2013-01-11,-0.944683079257
2013-01-14,-0.963040707915
2013-01-15,-0.997192266471
2013-01-16,-0.997192266471
2013-01-17,-0.997192266471
2013-01-18,-1.0322767153
2013-01-21,-1.06584147273
2013-01-22,-1.09555556716
2013-01-23,-1.08535895321
2013-01-24,-1.09002132969
2013-01-25,-1.15668780683
2013-01-28,-1.12697382981
2013-01-29,-1.00636571354
2013-01-30,-1.04778842981
2013-01-31,-1.05000229295
2013-02-01,-1.07381633928
2013-02-04,-1.08625741374
2013-02-05,-1.08554045567
2013-02-06,-1.08097082689
2013-02-07,-1.06351657128
2013-02-08,-0.978713210472
2013-02-11,-0.995674848874
2013-02-12,-1.01827556843
2013-02-13,-1.04607177734
2013-02-14,-1.0671429855
2013-02-15,-1.10423262601
2013-02-18,-1.12781987983
2013-02-19,-1.14009722788
2013-02-20,-1.14117511098
2013-02-21,-1.14673321557
2013-02-22,-1.19058271531
2013-02-25,-1.22625081904
2013-02-26,-1.25927807183
2013-02-27,-1.28041822517
2013-02-28,-1.29396118796
2013-03-01,-1.33478910336
2013-03-04,-1.33495226441
2013-03-05,-1.28918931608
2013-03-06,-1.32347955404
2013-03-07,-1.34812888909
2013-03-08,-1.32668020374
2013-03-11,-1.28878330729
2013-03-12,-1.29750834694
2013-03-13,-1.33670195833
2013-03-14,-1.3711818347
2013-03-15,-1.39230952904
2013-03-18,-1.3337124982
2013-03-19,-1.32422833964
2013-03-20,-1.34010169884
2013-03-21,-1.36529282987
2013-03-22,-1.33263439485
2013-03-25,-1.30270272233
2013-03-26,-1.31711153881
2013-03-27,-1.32861726049
2013-03-28,-1.33295237378
2013-03-29,-1.37614346178
2013-03-31,-1.4341318812
2013-04-01,-1.42792389817
2013-04-02,-1.42141608618
2013-04-03,-1.4224571289
2013-04-04,-1.35746244632
2013-04-07,-1.27253790757
2013-04-08,-1.29317375617
2013-04-09,-1.2791778209
2013-04-10,-1.26692985933
2013-04-11,-1.27641445316
2013-04-14,-1.25207865808
2013-04-15,-1.2075181466
2013-04-16,-1.17210525391
2013-04-17,-1.12843197684
2013-04-18,-1.08639598321
2013-04-21,-1.05592938106
2013-04-22,-1.07788785061
2013-04-23,-1.09604219453
2013-04-24,-1.09056942901
2013-04-25,-1.07618521056
2013-04-28,-1.09706294322
2013-04-29,-1.12165663625
2013-04-30,-1.13853851209
2013-05-01,-1.13709892843
2013-05-02,-1.15399201438
2013-05-05,-1.15702854367
2013-05-06,-1.1561278848
2013-05-07,-1.18319152519
2013-05-08,-1.20794858717
2013-05-09,-1.1818348607
2013-05-12,-1.18808912918
2013-05-13,-1.16488342198
2013-05-14,-1.14742769096
2013-05-15,-1.15093259704
2013-05-16,-1.13298648609
2013-05-19,-1.14496167231
2013-05-20,-1.14975836334
2013-05-21,-1.14974923634
2013-05-22,-1.15383184783
2013-05-23,-1.13977095572
2013-05-26,-1.10588788036
2013-05-27,-1.08781427144
2013-05-28,-1.02900725345
2013-05-29,-0.99448421724
2013-05-30,-0.909246900689
2013-06-02,-0.891461233152
2013-06-03,-0.819534933678
2013-06-04,-0.71295545751
2013-06-05,-0.724811226648
2013-06-06,-0.706069562977
2013-06-09,-0.651850803272
2013-06-10,-0.58663027906
2013-06-11,-0.526068962964
2013-06-12,-0.56428979558
2013-06-13,-0.502721727647
2013-06-16,-0.410596016448
2013-06-17,-0.236546506544
2013-06-18,-0.325569129626
2013-06-19,-0.124126310892
2013-06-20,-0.115940742032
2013-06-23,-0.150360605501
2013-06-24,-0.174884469844
2013-06-25,-0.189847401042
2013-06-26,-0.197419834416
2013-06-27,-0.192551786285
2013-06-30,-0.202162180476
2013-07-01,-0.15605079233
2013-07-02,-0.153765901173
2013-07-03,-0.222669286719
2013-07-04,-0.242027805861
2013-07-07,-0.282686864989
2013-07-08,-0.369898671047
2013-07-09,-0.389524447716
2013-07-10,-0.44344659739
2013-07-11,-0.503185335538
2013-07-14,-0.528536575028
2013-07-15,-0.432711252303
2013-07-16,-0.404715043407
2013-07-17,-0.389874259872
2013-07-18,-0.406957519928
2013-07-21,-0.462980848847
2013-07-22,-0.486369645549
2013-07-23,-0.468671221099
2013-07-24,-0.434016127837
2013-07-25,-0.510045967219
2013-07-28,-0.539369256703
2013-07-29,-0.588165523659
2013-07-30,-0.578813821772
2013-07-31,-0.567898983345
2013-08-01,-0.565572704531
2013-08-04,-0.496478993122
2013-08-05,-0.559494382051
2013-08-06,-0.598300426282
2013-08-07,-0.600124113448
2013-08-08,-0.568722622954
2013-08-11,-0.583814601658
2013-08-12,-0.578492229921
2013-08-13,-0.605529366435
2013-08-14,-0.576344776734
2013-08-15,-0.556310009053
2013-08-18,-0.416854208585
2013-08-19,-0.449115428395
2013-08-20,-0.416972900076
2013-08-21,-0.344363240189
2013-08-22,-0.178399106108
2013-08-25,0.0917283626543
2013-08-26,0.165187392223
2013-08-27,0.211460049463
2013-08-28,0.179685197957
2013-08-29,0.139768119309
2013-09-01,0.309452116383
2013-09-02,0.265100048828
2013-09-03,0.209413754818
2013-09-04,0.232447348453
2013-09-05,0.328577969311
2013-09-08,0.775563879937
2013-09-09,0.717626271033
2013-09-10,0.635938157847
2013-09-11,0.523271556666
2013-09-12,0.413074795616
2013-09-15,0.334175919752
2013-09-16,0.260912682239
2013-09-17,0.238248488849
2013-09-18,0.361109913217
2013-09-19,0.295219125085
2013-09-22,0.795903256479
2013-09-23,0.669207633105
2013-09-24,0.640062483671
2013-09-25,0.585482082166
2013-09-26,0.508398789495
2013-09-29,0.44128367258
2013-09-30,0.344008406101
2013-10-01,0.22802358746
2013-10-02,0.18353824027
2013-10-03,0.0689755768759
2013-10-06,0.000524865659787
2013-10-07,0.000524865659787
2013-10-08,0.000524865659787
2013-10-09,-0.0557301685412
2013-10-10,-0.0743501506924
2013-10-13,-0.136436242111
2013-10-14,-0.202979411387
2013-10-15,-0.249349398006
2013-10-16,-0.31906822361
2013-10-17,-0.341161292507
2013-10-20,-0.402058603469
2013-10-21,-0.395896455523
2013-10-22,-0.488937980386
2013-10-23,-0.493258909351
2013-10-24,-0.536649293493
2013-10-28,-0.537727370991
2013-10-29,-0.582895780798
2013-10-30,-0.672429018194
2013-10-31,-0.639302856026
2013-11-01,-0.478718976304
2013-11-04,-0.514169192982
2013-11-05,-0.456086466514
2013-11-06,-0.396672887443
2013-11-07,-0.418745805019
2013-11-08,-0.346285736895
2013-11-11,-0.350219384422
2013-11-12,-0.364898706356
2013-11-13,-0.404325638839
2013-11-14,-0.440816634981
2013-11-15,-0.454137270269
2013-11-18,-0.392684323934
2013-11-19,-0.278325619007
2013-11-20,-0.394351261376
2013-11-21,-0.358559684447
2013-11-22,-0.342345124152
2013-11-25,-0.340489911517
2013-11-26,-0.379756591361
2013-11-27,-0.412400709464
2013-11-28,-0.392732685323
2013-11-29,-0.401508793522
2013-12-02,-0.402523305723
2013-12-03,-0.440561487384
2013-12-04,-0.470599067346
2013-12-05,-0.47787376752
2013-12-06,-0.392956698765
2013-12-09,-0.320160916874
2013-12-10,-0.355798545646
2013-12-11,-0.329448560234
2013-12-12,-0.325170522978
2013-12-13,-0.392152812033
2013-12-16,-0.433032300432
2013-12-17,-0.52732484882
2013-12-18,-0.534987876736
2013-12-19,-0.509646758443
2013-12-20,-0.43391496048
2013-12-23,-0.454974617711
2013-12-24,-0.430905602498
2013-12-25,-0.565853522027
2013-12-26,-0.680684223281
2013-12-27,-0.724308360608
2013-12-30,-0.648568905443
2013-12-31,-0.676226371148
2014-01-01,-0.755534936301
2014-01-02,-0.648169566492
2014-01-03,-0.669515701962
2014-01-06,-0.70310934407
2014-01-07,-0.715682510973
2014-01-08,-0.723260577916
2014-01-09,-0.728807240915
2014-01-10,-0.719440746229
2014-01-13,-0.645240132342
2014-01-14,-0.671621734002
2014-01-15,-0.670066242302
2014-01-16,-0.669738375579
2014-01-17,-0.71743470632
2014-01-20,-0.681350263302
2014-01-21,-0.704028126379
2014-01-22,-0.715411065243
2014-01-23,-0.723375855568
2014-01-24,-0.619908536058
2014-01-27,-0.629117144369
2014-01-28,-0.635807460967
2014-01-29,-0.656527079421
2014-01-30,-0.65716674784
2014-01-31,-0.604941018968
2014-02-03,-0.636047661009
2014-02-04,-0.645961520823
2014-02-05,-0.582637385505
2014-02-06,-0.585208608407
2014-02-07,-0.60172954808
2014-02-10,-0.639757490662
2014-02-11,-0.622627095932
2014-02-12,-0.664367870702
2014-02-13,-0.683042892452
2014-02-14,-0.626745785723
2014-02-17,-0.672653720457
2014-02-18,-0.685157710693
2014-02-19,-0.705693858353
2014-02-20,-0.712118414402
2014-02-21,-0.682382474171
2014-02-24,-0.639523553471
2014-02-25,-0.685260173041
2014-02-26,-0.701325639069
2014-02-27,-0.756406503187
2014-02-28,-0.746192456246
2014-03-03,-0.789886458769
2014-03-04,-0.83194655952
2014-03-05,-0.873976995091
2014-03-06,-0.833052487966
2014-03-07,-0.804720090743
2014-03-10,-0.770230510425
2014-03-11,-0.7902661873
2014-03-12,-0.804036359293
2014-03-13,-0.831325632429
2014-03-14,-0.867077743834
2014-03-17,-0.858999087392
2014-03-18,-0.91025185339
2014-03-19,-0.943340876122
2014-03-20,-0.939855023454
2014-03-21,-0.90984420032
2014-03-24,-0.934781238852
2014-03-25,-0.934137976073
2014-03-26,-0.923500470179
2014-03-27,-0.841854129135
2014-03-28,-0.774220743281
2014-03-30,-0.791367843126
2014-03-31,-0.81844582937
2014-04-01,-0.817187788891
2014-04-02,-0.805607630191
2014-04-03,-0.75506603967
2014-04-06,-0.6449191508
2014-04-07,-0.617754876226
2014-04-08,-0.631203893478
2014-04-09,-0.632164743369
2014-04-10,-0.628966556908
2014-04-13,-0.670991224968
2014-04-14,-0.654607779192
2014-04-15,-0.690338627154
2014-04-16,-0.719798700183
2014-04-17,-0.78582726783
2014-04-20,-0.868706980223
2014-04-21,-0.872411485663
2014-04-22,-0.892584790278
2014-04-23,-0.889749634219
2014-04-24,-0.837288646695
2014-04-27,-0.824644661326
2014-04-28,-0.796914139392
2014-04-29,-0.775626617712
2014-04-30,-0.810522027291
2014-05-01,-0.82433224997
2014-05-04,-0.824141174602
2014-05-05,-0.835119330247
2014-05-06,-0.820399197789
2014-05-07,-0.8294135188
2014-05-08,-0.855261029269
2014-05-11,-0.881865250527
2014-05-12,-0.905825459251
2014-05-13,-0.939229793343
2014-05-14,-0.896993169346
2014-05-15,-0.9291691136
2014-05-18,-0.965740113157
2014-05-19,-0.958423284388
2014-05-20,-1.00926619376
2014-05-21,-1.00739295977
2014-05-22,-1.02127132293
2014-05-25,-1.05795691538
2014-05-26,-1.02546055944
2014-05-27,-1.03209874157
2014-05-28,-1.06243315823
2014-05-29,-1.03184818809
2014-06-01,-0.951016709756
2014-06-02,-0.915747091616
2014-06-03,-0.926503431186
2014-06-04,-0.939838128972
2014-06-05,-0.899045499272
2014-06-08,-0.878271826551
2014-06-09,-0.854147911812
2014-06-10,-0.855917518639
2014-06-11,-0.903298526754
2014-06-12,-0.907135154915
2014-06-15,-0.919250334805
2014-06-16,-0.87881271273
2014-06-17,-0.878820547495
2014-06-18,-0.784005559254
2014-06-19,-0.769589770405
2014-06-22,-0.801569625469
2014-06-23,-0.815275568475
2014-06-24,-0.833208443152
2014-06-25,-0.825690018511
2014-06-26,-0.835813815693
2014-06-29,-0.831455960978
2014-06-30,-0.849720500413
2014-07-01,-0.840650791284
2014-07-02,-0.794671869361
2014-07-03,-0.796971245208
2014-07-06,-0.803940455481
2014-07-07,-0.846481505631
2014-07-08,-0.85363278803
2014-07-09,-0.852836225233
2014-07-10,-0.887050644034
2014-07-13,-0.926630066608
2014-07-14,-0.910951261334
2014-07-15,-0.929115342916
2014-07-16,-0.870867895249
2014-07-17,-0.849503951784
2014-07-20,-0.781325250689
2014-07-21,-0.823622411168
2014-07-22,-0.84393389625
2014-07-23,-0.884733825845
2014-07-24,-0.88357502005
2014-07-27,-0.919312328859
2014-07-28,-0.936135486979
2014-07-29,-0.872924378417
2014-07-30,-0.817575016752
2014-07-31,-0.787002889976
2014-08-03,-0.811789314596
2014-08-04,-0.835177132193
2014-08-05,-0.803347711562
2014-08-06,-0.80019330896
2014-08-07,-0.79057088588
2014-08-10,-0.787957261761
2014-08-11,-0.810072553208
2014-08-12,-0.827261513474
2014-08-13,-0.8685086228
2014-08-14,-0.864790240711
2014-08-17,-0.890713760615
2014-08-18,-0.915901156312
2014-08-19,-0.919209447548
2014-08-20,-0.962813293659
2014-08-21,-0.959795902401
2014-08-24,-0.97781774768
2014-08-25,-1.01202935941
2014-08-26,-0.961618006097
2014-08-27,-0.992152666999
2014-08-28,-1.01083813027
2014-08-31,-1.03451040054
2014-09-01,-1.03827104937
2014-09-02,-1.06407419671
2014-09-03,-1.0861750024
2014-09-04,-1.09368236127
2014-09-07,-1.07871421589
2014-09-08,-0.992675947831
2014-09-09,-0.974882543973
2014-09-10,-0.971746767293
2014-09-11,-0.845380131406
2014-09-14,-0.761878210144
2014-09-15,-0.614804399559
2014-09-16,-0.631810711325
2014-09-17,-0.610045240864
2014-09-18,-0.633712975467
2014-09-21,-0.605861998005
2014-09-22,-0.56958852184
2014-09-23,-0.62143195381
2014-09-24,-0.532358918692
2014-09-25,-0.440351944811
2014-09-28,-0.307319849707
2014-09-29,-0.316169336711
2014-09-30,-0.261171888209
2014-10-01,-0.197831714971
2014-10-02,-0.255033644161
2014-10-05,0.0458533227103
2014-10-06,0.130397948399
2014-10-07,0.150522918151
2014-10-08,0.1071111166
2014-10-09,0.101010536214
2014-10-12,0.105013861928
2014-10-13,-0.012864347545
2014-10-14,0.0572818005881
2014-10-15,0.26372124556
2014-10-16,0.223379407305
2014-10-19,0.207486541262
2014-10-20,0.266355563424
2014-10-21,0.186037402373
2014-10-22,0.130792553542
2014-10-23,0.123372293884
2014-10-27,0.260016900367
2014-10-28,0.258612259626
2014-10-29,0.439887251317
2014-10-30,0.495171040537
2014-10-31,0.526054131148
2014-11-03,0.686738724259
2014-11-04,0.890608081131
2014-11-05,0.777599716511
2014-11-06,0.747033765284
2014-11-07,0.833553344739
2014-11-10,0.740238099779
2014-11-11,0.636111188434
2014-11-12,0.523804132273
2014-11-13,0.436252345849
2014-11-14,0.463535023977
2014-11-17,0.395905955203
2014-11-18,0.280676411123
2014-11-19,0.226480523777
2014-11-20,0.139714281444
2014-11-21,0.162520466255
2014-11-24,0.239847280308
2014-11-25,0.175552941664
2014-11-26,0.171256994351
2014-11-27,0.122645668013
2014-11-28,0.242980691103
2014-12-01,0.232381068226
2014-12-02,0.215101522534
2014-12-03,0.161871036436
2014-12-04,0.152602737081
2014-12-05,0.172257206297
2014-12-08,0.0744899806047
2014-12-09,0.00973576374545
2014-12-10,-0.0578301906433
2014-12-11,-0.00529590505678
2014-12-12,0.0185718518005
2014-12-15,0.0634177370206
2014-12-16,0.278343347225
2014-12-17,0.297568938831
2014-12-18,0.410243517751
2014-12-19,0.509292133412
2014-12-22,0.3960035789
2014-12-23,0.440291542546
2014-12-24,0.358333089172
2014-12-25,0.236119170889
2014-12-26,0.0642540641379
2014-12-29,0.0478280320667
2014-12-30,0.0831471513907
2014-12-31,0.135651629122
2015-01-01,-0.0398209308099
2015-01-02,-0.016833768115
2015-01-05,0.0420684999931
2015-01-06,-0.0214854526314
2015-01-07,-0.031415381568
2015-01-08,-0.0525352918404
2015-01-09,-0.0159969946531
2015-01-12,-0.00623895172116
2015-01-13,0.0180680175485
2015-01-14,0.106084715585
2015-01-15,0.10005744956
2015-01-16,0.0305021694258
2015-01-19,0.00458772500292
2015-01-20,-0.0336060612697
2015-01-21,0.0406246013721
2015-01-22,0.109924925762
2015-01-23,0.0437551972028
2015-01-26,-0.0087636756929
2015-01-27,-0.059390460208
2015-01-28,-0.0799995583243
2015-01-29,-0.129256584875
2015-01-30,0.125832964394
2015-02-02,0.349315161853
2015-02-03,0.32628614446
2015-02-04,0.288540571666
2015-02-05,0.339760760526
2015-02-06,0.295474936106
2015-02-09,0.289306466907
2015-02-10,0.397365295278
2015-02-11,0.582487877474
2015-02-12,0.529416996387
2015-02-13,0.516950234253
2015-02-16,0.377456888907
2015-02-17,0.25276142912
2015-02-18,0.20427798843
2015-02-19,0.183799878468
2015-02-20,0.172965233253
2015-02-23,0.129809668903
2015-02-24,0.0558981186241
2015-02-25,0.0709326505492
2015-02-26,0.076340692793
2015-02-27,0.128587642264
2015-03-02,0.211684896886
2015-03-03,0.310042193711
2015-03-04,0.502145844178
2015-03-05,0.550007775547
2015-03-06,0.694851020439
2015-03-09,0.855377954835
2015-03-10,1.02786535164
2015-03-11,0.99466921303
2015-03-12,0.964959782984
2015-03-13,1.2638584555
2015-03-16,1.3160649492
2015-03-17,1.28013201801
2015-03-18,1.24230350152
2015-03-19,1.27671333408
2015-03-20,1.40162830563
2015-03-23,1.62359858117
2015-03-24,1.83417606027
2015-03-25,1.73743666863
2015-03-26,1.73796725414
2015-03-27,1.683797706
2015-03-29,1.78409744565
2015-03-30,1.84599735551
2015-03-31,1.88339583865
2015-04-01,1.78425630436
2015-04-02,1.64980704459
2015-04-05,1.49298203682
2015-04-06,1.36409215248
2015-04-07,1.33514056099
2015-04-08,1.46145993824
2015-04-09,1.39097127481
2015-04-12,1.3478286321
2015-04-13,1.27876315567
2015-04-14,1.2860264994
2015-04-15,1.25484213532
2015-04-16,1.23257856068
2015-04-19,1.11150521847
2015-04-20,0.957432555214
2015-04-21,0.861590278154
2015-04-22,0.836924263074
2015-04-23,0.798030472936
2015-04-26,0.832938530573
2015-04-27,0.856056857104
2015-04-28,0.778611259438
2015-04-29,0.846513818371
2015-04-30,1.08954253188
2015-05-03,1.16312460946
2015-05-04,1.18868785164
2015-05-05,1.16854661942
2015-05-06,1.10113144294
2015-05-07,1.08278201667
2015-05-10,1.16168106337
2015-05-11,1.28514447534
2015-05-12,1.30162016087
2015-05-13,1.20722269041
2015-05-14,1.20286273022
2015-05-17,1.07944972408
2015-05-18,1.02286083479
2015-05-19,0.90895843947
2015-05-20,0.866778610701
2015-05-21,0.885992380905
2015-05-24,0.993450055693
2015-05-25,1.01514327558
2015-05-26,1.09366773382
2015-05-27,1.05316846149
2015-05-28,1.00886865947
2015-05-31,0.955462015113
2015-06-01,0.889136793916
2015-06-02,0.918652813007
2015-06-03,0.732245681424
2015-06-04,0.806063030915
2015-06-07,0.72586693791
2015-06-08,0.713870262627
2015-06-09,0.671123078102
2015-06-10,0.713608541909
2015-06-11,0.634810413862
2015-06-14,0.589901470721
2015-06-15,0.527376600779
2015-06-16,0.534020029959
2015-06-17,0.540932632357
2015-06-18,0.513141099266
2015-06-21,0.458330224619
2015-06-22,0.40929367213
2015-06-23,0.339961206586
2015-06-24,0.326152923398
2015-06-25,0.283210939281
2015-06-28,0.261928836578
2015-06-29,0.280467633547
2015-06-30,0.20248813494
2015-07-01,0.218951213388
2015-07-02,0.254318362242
2015-07-05,0.304264475266
2015-07-06,0.360311159142
2015-07-07,0.545105649854
2015-07-08,0.539327160285
2015-07-09,0.543257718389
2015-07-12,0.616071982566
2015-07-13,0.567667423627
2015-07-14,0.509705515399
2015-07-15,0.382628911946
2015-07-16,0.423409985705
2015-07-19,0.482101834079
2015-07-20,0.387488780957
2015-07-21,0.45767087615
2015-07-22,0.708022229016
2015-07-23,0.912230595202
2015-07-26,1.01558300021
2015-07-27,0.994047878574
2015-07-28,0.916785781665
2015-07-29,0.920900201048
2015-07-30,1.00504075166
2015-08-02,1.08131200325
2015-08-03,1.05247898928
2015-08-04,0.978108428399
2015-08-05,1.09571972266
2015-08-06,1.1402279732
2015-08-09,1.14957779644
2015-08-10,1.31592499632
2015-08-11,1.29190132373
2015-08-12,1.29785437495
2015-08-13,1.26582516262
2015-08-16,1.22901856437
2015-08-17,1.12009876958
2015-08-18,1.05168193056
2015-08-19,1.02124683098
2015-08-20,0.987779739967
2015-08-23,1.18353283684
2015-08-24,1.13438351696
2015-08-25,1.25979675367
2015-08-26,1.25837483811
2015-08-27,1.21168855167
2015-08-30,1.42491483629
2015-08-31,1.50466175614
2015-09-01,1.71295101658
2015-09-02,1.85988098062
2015-09-03,1.89703148012
2015-09-06,1.98321579172
2015-09-07,1.89814182117
2015-09-08,1.85930457197
2015-09-09,2.03965923915
2015-09-10,2.13238919083
2015-09-13,1.9942688567
2015-09-14,1.98760984403
2015-09-15,1.86094644763
2015-09-16,1.91326677175
2015-09-17,1.94325733303
2015-09-20,2.01052201666
2015-09-21,2.01052201666
2015-09-22,2.01052201666
2015-09-23,2.47357361196
2015-09-24,3.31373237439
2015-09-27,3.28850419856
2015-09-28,3.56751597003
2015-09-29,3.72650109946
2015-09-30,3.73398550954
2015-10-01,3.62741722329
2015-10-04,3.62435133747
2015-10-05,3.60353257732
2015-10-06,3.63376753062
2015-10-07,3.51622205208
2015-10-08,3.6994074325
2015-10-11,3.41154227027
2015-10-12,3.40640150012
2015-10-13,3.47644934419
2015-10-14,3.46766930957
2015-10-15,3.28620441311
2015-10-18,3.38418290659
2015-10-19,3.25300006626
2015-10-20,3.170970103
2015-10-21,2.9752909661
2015-10-22,2.86738692932
2015-10-26,2.77751826225
2015-10-27,2.59502139292
2015-10-28,2.40677460807
2015-10-29,2.3183044258
2015-10-30,2.24814883908
2015-11-02,1.98793492388
2015-11-03,2.02773344482
2015-11-04,2.18124156723
2015-11-05,2.0316100714
2015-11-06,2.00483433829
2015-11-09,1.83173899588
2015-11-10,1.72243436962
2015-11-11,1.78454415563
2015-11-12,1.77079476999
2015-11-13,1.7077712984
2015-11-16,1.76893390959
2015-11-17,1.68251467642
2015-11-18,1.59824036793
2015-11-19,1.65632207428
2015-11-20,1.60918284179
2015-11-23,1.59424719269
2015-11-24,1.49067158809
2015-11-25,1.62363923889
2015-11-26,1.58601715461
2015-11-27,1.49733188665
2015-11-30,1.90109395448
2015-12-01,1.8454814775
2015-12-02,1.65730896146
2015-12-03,1.6688050426
2015-12-04,1.79396793654
2015-12-07,1.66405040731
2015-12-08,1.64560604138
2015-12-09,1.72576639749
2015-12-10,1.72191628606
2015-12-11,1.95308239102
2015-12-14,2.05478980266
2015-12-15,2.02181126298
2015-12-16,1.98598189919
2015-12-17,1.88307904279
2015-12-18,1.80318722344
2015-12-21,2.09427619551
2015-12-22,1.98328722653
2015-12-23,1.88955108444
2015-12-24,1.77721265944
2015-12-25,1.58321191613
2015-12-28,1.61040059934
2015-12-29,1.59210113093
2015-12-30,1.86240160859
2015-12-31,1.91428320951
2016-01-01,1.6305417362
2016-01-04,1.74922081313
2016-01-05,1.83932123745
2016-01-06,1.70160931975
2016-01-07,1.5953221055
2016-01-08,1.46278002832
2016-01-11,1.3891909593
2016-01-12,1.33648651719
2016-01-13,1.38017464602
2016-01-14,1.29575517534
2016-01-15,1.22778477565
2016-01-18,1.12598840643
2016-01-19,1.08800423369
2016-01-20,1.05087491261
2016-01-21,1.20757581936
2016-01-22,1.15260677291
2016-01-25,1.14210581885
2016-01-26,1.1185941144
2016-01-27,1.09341517469
2016-01-28,1.1633853232
2016-01-29,1.29343993657
2016-02-01,1.41754937023
2016-02-02,1.37361813946
2016-02-03,1.29675164968
2016-02-04,1.59132020769
2016-02-05,1.51861343322
2016-02-08,1.33135314981
2016-02-09,1.11358862816
2016-02-10,1.13153609162
2016-02-11,1.23187454524
2016-02-12,1.24025656584
2016-02-15,1.11267665491
2016-02-16,1.20394824828
2016-02-17,1.28014657703
2016-02-18,1.36168584639
2016-02-19,1.39054461504
2016-02-22,1.46122239487
2016-02-23,1.48631771947
2016-02-24,1.43561889981
2016-02-25,1.30524379713
2016-02-26,1.24777072179
2016-02-29,1.15498557893
2016-03-01,1.08444659488
2016-03-02,1.28854643966
2016-03-03,1.35869944395
2016-03-04,1.97791375289
2016-03-07,1.89656338168
2016-03-08,1.7436772183
2016-03-09,1.81701826949
2016-03-10,1.94052739504
2016-03-11,1.96522450444
2016-03-14,1.88775593517
2016-03-15,2.2460597398
2016-03-16,2.627854818
2016-03-17,2.77674151694
2016-03-18,2.90532494366
2016-03-21,2.69191267635
2016-03-22,2.55993473743
2016-03-23,2.57050816453
2016-03-24,2.72832464378
2016-03-25,2.48033036276
2016-03-27,2.29206979683
2016-03-28,2.27046062648
2016-03-29,2.2392393607
2016-03-30,2.29874948466
2016-03-31,2.26216091669
2016-04-03,2.19323158864
2016-04-04,2.31440895293
2016-04-05,2.30347534037
2016-04-06,2.30596572291
2016-04-07,2.22126454398
2016-04-10,2.55388314969
2016-04-11,2.64967128534
2016-04-12,2.56198717514
2016-04-13,2.34744289139
2016-04-14,2.35608904518
2016-04-17,2.49538165898
2016-04-18,2.44735098971
2016-04-19,2.49385500823
2016-04-20,2.26632857321
2016-04-21,2.20714179674
2016-04-24,2.03133058394
2016-04-25,1.86882105964
2016-04-26,1.7138290155
2016-04-27,1.5914753025
2016-04-28,1.66601847195
2016-05-01,1.71329782767
2016-05-02,1.95576922213
2016-05-03,1.91095642657
2016-05-04,1.78902445987
2016-05-05,1.69588195607
2016-05-08,2.11027744929
2016-05-09,1.97262086955
2016-05-10,1.91991105825
2016-05-11,1.90071441192
2016-05-12,1.85202522759
2016-05-15,1.74248342627
2016-05-16,1.64485642083
2016-05-17,1.612955413
2016-05-18,1.79714800659
2016-05-19,1.60190967082
2016-05-22,1.55002146342
2016-05-23,1.37466615288
2016-05-24,1.37136076209
2016-05-25,1.2284751009
2016-05-26,1.22557192608
2016-05-29,1.08045679262
2016-05-30,1.04647892989
2016-05-31,1.03798288366
2016-06-01,0.946426995146
2016-06-02,0.9495397414
2016-06-05,1.00820794896
2016-06-06,1.04260556094
2016-06-07,1.21994032936
2016-06-08,1.3299460824
2016-06-09,1.36813573795
2016-06-12,1.35637235851
2016-06-13,1.43915591937
2016-06-14,1.29812110952
2016-06-15,1.16976318052
2016-06-16,1.12122555116
2016-06-19,1.20704678873
2016-06-20,1.1733230873
2016-06-21,1.05611041841
2016-06-22,1.08559901401
2016-06-23,1.31192207972
2016-06-26,1.30714877824
2016-06-27,1.36332829588
2016-06-28,1.70442395976
2016-06-29,1.82630522135
2016-06-30,1.71971617363
2016-07-03,1.59619840114
2016-07-04,1.55103964214
2016-07-05,1.46225316337
2016-07-06,1.36828116595
2016-07-07,1.40633556089
2016-07-10,1.45766141834
2016-07-11,1.3614144397
2016-07-12,1.21254593429
2016-07-13,1.25726205097
2016-07-14,1.16305819948
2016-07-17,1.0450913354
2016-07-18,0.981288465238
2016-07-19,0.845441442875
2016-07-20,0.716694815964
2016-07-21,0.64660068525
2016-07-24,0.612748841392
2016-07-25,0.535205345726
2016-07-26,0.442005110676
2016-07-27,0.383722782908
2016-07-28,0.41512942492
2016-07-31,0.375128274459
2016-08-01,0.301171007036
2016-08-02,0.244395663727
2016-08-03,0.270136461361
2016-08-04,0.36431864708
2016-08-07,0.341705359774
2016-08-08,0.316616935968
2016-08-09,0.339058330916
2016-08-10,0.324570834901
2016-08-11,0.307399640656
2016-08-14,0.309675705274
2016-08-15,0.247458808538
2016-08-16,0.231333392956
2016-08-17,0.224168683478
2016-08-18,0.182561656804
2016-08-21,0.135002114119
2016-08-22,0.0700159731316
2016-08-23,0.074373936535
2016-08-24,-0.0115675520593
2016-08-25,-0.00919108467589
2016-08-28,0.0372660155946
2016-08-29,0.0774299360475
2016-08-30,0.015812389692
2016-08-31,0.0615990832974
2016-09-01,0.0591212143685
2016-09-04,0.00401736099234
2016-09-05,0.0565961876285
2016-09-06,0.22552755948
2016-09-07,0.226214591153
2016-09-08,0.355513319367
2016-09-11,0.485988278356
2016-09-12,0.549878399096
2016-09-13,0.699193108531
2016-09-14,0.668649850232
2016-09-15,0.662599369462
2016-09-18,0.622770687691
2016-09-19,0.509929116632
2016-09-20,0.45943804059
2016-09-21,0.539726832401
2016-09-22,0.445459931162
2016-09-25,0.364619714882
2016-09-26,0.266870831623
2016-09-27,0.161229933985
2016-09-28,0.0638785186299
2016-09-29,0.0422733841167
2016-10-02,0.00510628440508
2016-10-03,0.0423614013344
2016-10-04,0.0561317300211
2016-10-05,0.030617714312
2016-10-06,0.0411365064811
2016-10-09,-0.0242101348761
2016-10-10,-0.0908387899797
2016-10-11,-0.215179380807
2016-10-12,-0.28675997232
2016-10-13,-0.271420238353
2016-10-16,-0.324853252157
2016-10-17,-0.364057767888
2016-10-18,-0.357327136405
2016-10-19,-0.382684678935
2016-10-20,-0.410321339732
2016-10-23,-0.422597283606
2016-10-24,-0.375243768343
2016-10-25,-0.423120075399
2016-10-26,-0.382794404663
2016-10-27,-0.327128394082
2016-10-31,-0.32117631533
2016-11-01,-0.259499742617
2016-11-02,-0.252056798903
2016-11-03,-0.277868464456
2016-11-04,-0.30555495898
2016-11-07,-0.178804552702
2016-11-08,-0.168944808517
2016-11-09,-0.0196011516371
2016-11-10,0.6177285483
2016-11-11,1.37277769845
2016-11-14,1.4250131369
2016-11-15,1.35303744511
2016-11-16,1.25050508824
2016-11-17,1.27875131413
2016-11-18,1.31873847411
2016-11-21,1.40867238339
2016-11-22,1.36091870836
2016-11-23,1.32215378916
2016-11-24,1.33152372904
2016-11-25,1.34208364719
2016-11-28,1.20612332628
2016-11-29,1.11334113117
2016-11-30,1.14246033608
2016-12-01,1.23940776189
2016-12-02,1.61501265894
2016-12-05,1.81541971204
2016-12-06,1.72968820991
2016-12-07,1.64264334776
2016-12-08,1.52016855886
2016-12-09,1.45515457288
2016-12-12,1.43643185994
2016-12-13,1.38297684579
2016-12-14,1.27979336805
2016-12-15,1.28586756937
2016-12-16,1.25283529775
2016-12-19,1.12324985895
2016-12-20,1.02560349105
2016-12-21,0.926007417244
2016-12-22,0.829806829338
2016-12-23,0.843852550398
2016-12-26,0.674315704752
2016-12-27,0.530275303516
2016-12-28,0.47052203777
2016-12-29,0.422102049232
2016-12-30,0.342186549254
2017-01-02,0.283597080616
2017-01-03,0.248528874732
2017-01-04,0.301491486135
2017-01-05,0.345093274816
2017-01-06,0.24055839471
2017-01-09,0.16654511183
2017-01-10,0.142068872479
2017-01-11,0.0873616693837
2017-01-12,0.0603606476002
2017-01-13,0.0304541950528
2017-01-16,0.0201609587119
2017-01-17,0.0496474068905
2017-01-18,0.0974795367171
2017-01-19,0.047072841986
2017-01-20,0.0415421904225
2017-01-23,0.0148391730713
2017-01-24,-0.0508601989334
2017-01-25,-0.175081587889
2017-01-26,-0.187427034028
2017-01-27,-0.21302103618
2017-01-30,-0.154607617313
2017-01-31,-0.204856979717
2017-02-01,-0.232552653178
2017-02-02,-0.230381168998
2017-02-03,-0.270384059676
2017-02-06,-0.357729612474
2017-02-07,-0.42359026781
2017-02-08,-0.51635400524
2017-02-09,-0.604722873046
2017-02-10,-0.650710041007
2017-02-13,-0.704567969356
2017-02-14,-0.736730009863
2017-02-15,-0.662476219489
2017-02-16,-0.638520355624
2017-02-17,-0.580949690907
2017-02-20,-0.63384087042
2017-02-21,-0.689275591463
2017-02-22,-0.721414388866
2017-02-23,-0.679861986039
2017-02-24,-0.623800570961
2017-02-27,-0.559100576827
2017-02-28,-0.605743516675
2017-03-01,-0.691074086808
2017-03-02,-0.63421180739
2017-03-03,-0.504437768464
2017-03-06,-0.418143681922
2017-03-07,-0.454031262951
2017-03-08,-0.458350994274
2017-03-09,-0.34894733267
2017-03-10,-0.333999719571
2017-03-13,-0.257648667759
2017-03-14,-0.302397214814
2017-03-15,-0.320522765069
2017-03-16,-0.184150635247
2017-03-17,-0.230058670464
2017-03-20,-0.235130514703
2017-03-21,-0.251739346328
2017-03-22,-0.282407762241
2017-03-23,-0.210113702175
2017-03-24,-0.135918316744
2017-03-26,-0.124659651889
2017-03-27,-0.194153343768
2017-03-28,-0.251989865653
2017-03-29,-0.249173713026
2017-03-30,-0.207514260806
2017-04-02,-0.191513451883
2017-04-03,-0.255860020397
2017-04-04,-0.256114095576
2017-04-05,-0.300228551058
2017-04-06,-0.361271978586
2017-04-09,-0.423904792277
2017-04-10,-0.467933459968
2017-04-11,-0.535962414202
2017-04-12,-0.598388453546
2017-04-13,-0.65077771103
2017-04-16,-0.607205598394
2017-04-17,-0.503159098344
2017-04-18,-0.472734135886
2017-04-19,-0.447457200525
2017-04-20,-0.548556159338
2017-04-23,-0.418578898063
2017-04-24,-0.360356852243
2017-04-25,-0.27282684968
2017-04-26,-0.273728268165
2017-04-27,-0.23923936563
2017-04-30,-0.343683616898
2017-05-01,-0.391211256924
2017-05-02,-0.389606277307
2017-05-03,-0.359855191904
2017-05-04,-0.399534384569
2017-05-07,-0.43377638563
2017-05-08,-0.500526611522
2017-05-09,-0.47772672257
2017-05-10,-0.464736139722
2017-05-11,-0.427759375891
2017-05-14,-0.404951219513
2017-05-15,-0.217554401463
2017-05-16,-0.303095722225
2017-05-17,0.697331075498
2017-05-18,1.35335949471
2017-05-21,1.60294791834
2017-05-22,1.40298849894
2017-05-23,1.22288967425
2017-05-24,1.0482180126
2017-05-25,0.951840690996
2017-05-28,0.776077814483
2017-05-29,0.882833935186
2017-05-30,0.727989745938
2017-05-31,0.643330313855
2017-06-01,0.518236491978
2017-06-04,0.494669075327
2017-06-05,0.47278504558
2017-06-06,0.376234513794
2017-06-07,0.259063405249
2017-06-08,0.160673515828
2017-06-11,0.164133719506
2017-06-12,0.551841668315
2017-06-13,0.512859064142
2017-06-14,0.468852041025
2017-06-15,0.347296506441
2017-06-18,0.292804264101
2017-06-19,0.25075691933
2017-06-20,0.233652220593
2017-06-21,0.125550005752
2017-06-22,0.00434566923097
2017-06-25,-0.0375493467104
2017-06-26,0.048862241151
2017-06-27,-0.0586836552913
2017-06-28,-0.0953328727506
2017-06-29,-0.140891699
2017-07-02,-0.156051131997
2017-07-03,0.17457899696
2017-07-04,0.180392619417
2017-07-05,0.114767263218
2017-07-06,0.0244531294645
2017-07-09,0.00938261355194
2017-07-10,0.00938261355194
2017-07-11,0.00938261355194
2017-07-12,0.0415185095685
2017-07-13,-0.0389966811171
2017-07-16,-0.0821876915072
2017-07-17,-0.146833669296
2017-07-18,-0.187773172497
2017-07-19,-0.252935308577
2017-07-20,-0.205641675897
2017-07-23,-0.251256799451
2017-07-24,-0.260287043459
2017-07-25,-0.30638632744
2017-07-26,-0.24777048274
2017-07-27,-0.336157056784
2017-07-30,-0.371974734862
2017-07-31,-0.258752012269
2017-08-01,-0.363578965155
2017-08-02,-0.388419883954
2017-08-03,-0.447325284984
2017-08-06,-0.504009217212
2017-08-07,-0.589060697838
2017-08-08,-0.629627047751
2017-08-09,-0.633413502579
2017-08-10,-0.675512358597
2017-08-13,-0.688889374031
2017-08-14,-0.722583301374
2017-08-15,-0.755660467626
2017-08-16,-0.727457686308
2017-08-17,-0.762732142849
2017-08-20,-0.735229843116
2017-08-21,-0.741126068661
2017-08-22,-0.806984908135
2017-08-23,-0.820114000812
2017-08-24,-0.881250378875
2017-08-27,-0.940544689059
2017-08-28,-0.987984648489
2017-08-29,-1.05563319686
2017-08-30,-1.05452783984
2017-08-31,-1.01673502116
2017-09-03,-1.07467405937
2017-09-04,-0.930181334426
2017-09-05,-0.920876065143
2017-09-06,-0.950051193474
2017-09-07,-1.00218340152
2017-09-10,-1.02736084797
2017-09-11,-0.769975741604
2017-09-12,-0.744911691425
2017-09-13,-0.760131007666
2017-09-14,-0.81757173385
2017-09-17,-0.839143862592
2017-09-18,-0.854311633019
2017-09-19,-0.912789129164
2017-09-20,-0.975268843582
2017-09-21,-1.0179679786
2017-09-24,-0.994586065696
2017-09-25,-0.918828382129
2017-09-26,-0.864908143291
2017-09-27,-0.860321422343
2017-09-28,-0.838923949158
2017-10-01,-0.860786365036
2017-10-02,-0.883316528453
2017-10-03,-0.874435729875
2017-10-04,-0.905666736649
2017-10-05,-0.872847029166
2017-10-08,-0.746688249685
2017-10-09,-0.746465127929
2017-10-10,-0.72354970251
2017-10-11,-0.733914775729
2017-10-12,-0.748004523078
2017-10-15,-0.716423905052
2017-10-16,-0.710921191522
2017-10-17,-0.699485806844
2017-10-18,-0.741709177421
2017-10-19,-0.750772431024
2017-10-22,-0.684771248034
2017-10-23,-0.540891658592
2017-10-24,-0.543470669146
2017-10-25,-0.562606870879
2017-10-26,-0.450167084203
2017-10-30,-0.390779037039
2017-10-31,-0.336008472906
2017-11-01,-0.378894137363
2017-11-02,-0.42243415891
2017-11-03,-0.26274251583
2017-11-06,-0.23311998356
2017-11-07,-0.2149133786
2017-11-08,-0.247476760928
2017-11-09,-0.278456930199
2017-11-10,-0.341813007578
2017-11-13,-0.314354605504
2017-11-14,-0.329397776262
2017-11-15,-0.338903041434
2017-11-16,-0.338903041434
2017-11-17,-0.338903041434
2017-11-20,-0.338903041434
2017-11-21,-0.425951379291
2017-11-22,-0.449309288884
2017-11-23,-0.45352389717
2017-11-24,-0.548142338623
2017-11-27,-0.616079622385
2017-11-28,-0.628226725586
2017-11-29,-0.649812292606
2017-11-30,-0.472611916901
2017-12-01,-0.481745553613
2017-12-04,-0.519259724575
2017-12-05,-0.511545951114
2017-12-06,-0.57901589222
2017-12-07,-0.376405879558
2017-12-08,-0.23496920548
2017-12-11,-0.312055053503
2017-12-12,-0.301319408383
2017-12-13,-0.303270901906
2017-12-14,-0.299572265356
2017-12-15,-0.328222088528
2017-12-18,-0.242447464197
2017-12-19,-0.310092459541
2017-12-20,-0.305551676159
2017-12-21,-0.361167399522
2017-12-22,-0.324400155956
2017-12-25,-0.36413634907
2017-12-26,-0.407751462877
2017-12-27,-0.392658687821
2017-12-28,-0.400441547518
2017-12-29,-0.427818414034
2018-01-01,-0.562987367726
2018-01-02,-0.4915300791
2018-01-03,-0.365510639307
2018-01-04,-0.375962134403
2018-01-05,-0.438928470633
2018-01-08,-0.505937871432
2018-01-09,-0.542003357967
2018-01-10,-0.607818779156
2018-01-11,-0.637954908371
2018-01-12,-0.647087355509
2018-01-15,-0.63075594007
2018-01-16,-0.626877637243
2018-01-17,-0.664176295889
2018-01-18,-0.70701350528
2018-01-19,-0.750114384016
2018-01-22,-0.781102556645
2018-01-23,-0.741720203214
2018-01-24,-0.627364894423
2018-01-25,-0.328675424517
2018-01-26,-0.391364770896
2018-01-29,-0.440562021236
2018-01-30,-0.401788699941
2018-01-31,-0.398671299292
2018-02-01,-0.421910664558
2018-02-02,-0.344949212546
2018-02-05,-0.187334125051
2018-02-06,-0.120505333295
2018-02-07,-0.166258986439
2018-02-08,-0.105815900445
2018-02-09,-0.130235564961
2018-02-12,-0.176011324731
2018-02-13,-0.320984374345
2018-02-14,-0.291986025895
2018-02-15,-0.0609100415242
2018-02-16,-0.117206235493
2018-02-19,-0.226080638974
2018-02-20,-0.280602797105
2018-02-21,-0.321537619366
2018-02-22,-0.388210315765
2018-02-23,-0.395753186671
2018-02-26,-0.453012041747
2018-02-27,-0.471554132842
2018-02-28,-0.496213334278
2018-03-01,-0.509803298374
2018-03-02,-0.569685229094
2018-03-05,-0.65282126683
2018-03-06,-0.654098182345
2018-03-07,-0.649330184091
2018-03-08,-0.561929108317
2018-03-09,-0.587188895813
2018-03-12,-0.656404511759
2018-03-13,-0.685327726861
2018-03-14,-0.698418207924
2018-03-15,-0.684904130955
2018-03-16,-0.663800164473
2018-03-19,-0.715254540189
2018-03-20,-0.747407903985
2018-03-21,-0.756060827933
2018-03-22,-0.71983193578
2018-03-23,-0.683588613745
2018-03-25,-0.715769916887
2018-03-26,-0.75197440218
2018-03-27,-0.74839837002
2018-03-28,-0.810909009291
2018-03-29,-0.858539043795
2018-04-01,-0.896443110474
2018-04-02,-0.920109550696
2018-04-03,-0.813776752978
2018-04-04,-0.776405516462
2018-04-05,-0.685175536548
2018-04-08,-0.607529655672
2018-04-09,-0.487085032515
2018-04-10,-0.511729311658
2018-04-11,-0.487383174625
2018-04-12,-0.425728416103
2018-04-15,-0.405294738281
2018-04-16,-0.440987305191
2018-04-17,-0.439545309381
2018-04-18,-0.411803079598
2018-04-19,-0.400917690894
2018-04-22,-0.304907186869
2018-04-23,-0.214639721024
2018-04-24,-0.061280835876
2018-04-25,-0.0616749207172
2018-04-26,-0.148686058774
2018-04-29,-0.184113866332
2018-04-30,-0.164949732705
2018-05-01,-0.0787314651648
2018-05-02,-0.0280492882928
2018-05-03,-0.0430885946459
2018-05-06,-0.0429228429246
2018-05-07,0.0334626553125
2018-05-08,0.0463815061756
2018-05-09,0.0472217370979
2018-05-10,0.0706853792033
2018-05-13,0.173910095604
2018-05-14,0.31475622365
2018-05-15,0.360014232793
2018-05-16,0.374521965245
2018-05-17,0.515168551662
2018-05-20,0.470624131523
2018-05-21,0.660556245092
2018-05-22,0.580712592619
2018-05-23,0.560491276598
2018-05-24,0.536136536213
2018-05-27,0.662635423621
2018-05-28,0.943714740932
2018-05-29,1.04630648361
2018-05-30,0.923291472419
2018-05-31,0.921735262062
2018-06-03,0.848522340577
2018-06-04,0.848588273939
2018-06-05,0.976939104333
2018-06-06,1.24746641578
2018-06-07,1.58717133258
2018-06-10,2.14431619329
2018-06-11,2.02951384828
2018-06-12,1.80243126002
2018-06-13,1.63284467949
2018-06-14,1.66315733441
2018-06-17,1.66341580837
2018-06-18,1.59411931611
2018-06-19,1.48031616552
2018-06-20,1.40885231092
2018-06-21,1.2930366241
2018-06-24,1.13045932219
2018-06-25,1.0315541007
2018-06-26,1.08882645369
2018-06-27,1.12378713561
2018-06-28,1.03205188214
2018-07-01,1.00450629768
2018-07-02,0.912738528712
2018-07-03,0.808189292701
2018-07-04,0.747921260218
2018-07-05,0.722449987453
2018-07-08,0.847539014844
2018-07-09,0.838750730931
2018-07-10,0.828359069184
2018-07-11,0.827634123649
2018-07-12,0.75630904078
2018-07-15,0.773745355943
2018-07-16,0.71445022803
2018-07-17,0.59543190124
2018-07-18,0.581596448726
2018-07-19,0.69852563476
2018-07-22,0.723436003337
2018-07-23,0.698598137725
2018-07-24,0.785230772168
2018-07-25,0.844851640298
2018-07-26,0.832908648114
2018-07-29,0.816240946529
2018-07-30,0.775106004512
2018-07-31,0.694889993848
2018-08-01,0.653870384198
2018-08-02,0.610946671787
2018-08-05,0.609761550235
2018-08-06,0.522019561174
2018-08-07,0.444263379613
2018-08-08,0.520058310138
2018-08-09,0.675965274736
2018-08-12,0.877629379058
2018-08-13,0.740633965374
2018-08-14,0.751752879766
2018-08-15,0.727123499454
2018-08-16,0.773045977123
2018-08-19,0.732021582501
2018-08-20,0.825191248907
2018-08-21,1.05189413079
2018-08-22,1.08651796589
2018-08-23,1.12796496867
2018-08-26,1.1099299723
2018-08-27,1.18726173649
2018-08-28,1.22709053394
2018-08-29,1.3745144486
2018-08-30,1.35894878014
2018-09-02,1.52893351515
2018-09-03,1.73548908817
2018-09-04,1.64468320621
2018-09-06,1.44323009444
