Date,atr
2010-01-04,
2010-01-05,1.03425903469
2010-01-06,0.806243751324
2010-01-07,0.906483183349
2010-01-08,0.770643234559
2010-01-11,0.721659344841
2010-01-12,0.710771301195
2010-01-13,0.648255749207
2010-01-14,0.677679248534
2010-01-15,0.701157407138
2010-01-18,0.651302848212
2010-01-19,0.71959755637
2010-01-20,0.777827887378
2010-01-21,0.795495603237
2010-01-22,0.890016657063
2010-01-25,0.850848695612
2010-01-26,0.852685614176
2010-01-27,0.946112040887
2010-01-28,0.950144850124
2010-01-29,0.89548099344
2010-02-01,0.958511886925
2010-02-02,0.914791237871
2010-02-03,0.946541662664
2010-02-04,1.12267568542
2010-02-05,1.10351690835
2010-02-08,1.04549729359
2010-02-09,0.992656359141
2010-02-10,0.979000207546
2010-02-11,0.960694113312
2010-02-12,0.969988614281
2010-02-15,0.900960153725
2010-02-16,0.855672526104
2010-02-17,0.864443507346
2010-02-18,0.837264091915
2010-02-19,0.807556460437
2010-02-22,0.812676660483
2010-02-23,0.807447233395
2010-02-24,0.755641423899
2010-02-25,0.774844080657
2010-02-26,0.778030398326
2010-03-01,0.7836908586
2010-03-02,0.801712962939
2010-03-03,0.788931221348
2010-03-04,0.754787727964
2010-03-05,0.716368190435
2010-03-08,0.71807201218
2010-03-09,0.719645486109
2010-03-10,0.705849509412
2010-03-11,0.684350286377
2010-03-12,0.668648914569
2010-03-15,0.644656576988
2010-03-16,0.623595652821
2010-03-17,0.591270488002
2010-03-18,0.661620398335
2010-03-19,0.662760540558
2010-03-22,0.680732461839
2010-03-23,0.69287255998
2010-03-24,0.720994745635
2010-03-25,0.728319489896
2010-03-26,0.700675580694
2010-03-28,0.668698318372
2010-03-29,0.687251521954
2010-03-30,0.671227259802
2010-03-31,0.639956657003
2010-04-01,0.600895366142
2010-04-04,0.56318124778
2010-04-05,0.560596046561
2010-04-06,0.620343683075
2010-04-07,0.684320504374
2010-04-08,0.642920751601
2010-04-11,0.636099322352
2010-04-12,0.646486078307
2010-04-13,0.609337029966
2010-04-14,0.602705688048
2010-04-15,0.618816528139
2010-04-18,0.61225148534
2010-04-19,0.604304571537
2010-04-20,0.577649430105
2010-04-21,0.606287962539
2010-04-22,0.577279416615
2010-04-25,0.578143316499
2010-04-26,0.621917194898
2010-04-27,0.584769051104
2010-04-28,0.581022834208
2010-04-29,0.562734690516
2010-05-02,0.579077004083
2010-05-03,0.670871869687
2010-05-04,0.734251319597
2010-05-05,0.87265639213
2010-05-06,0.872003971712
2010-05-09,0.916538521511
2010-05-10,0.928286763719
2010-05-11,0.867426105506
2010-05-12,0.811661634946
2010-05-13,0.920416711091
2010-05-16,0.940390843306
2010-05-17,0.947471005247
2010-05-18,1.02245984328
2010-05-19,1.2104179383
2010-05-20,1.20300378736
2010-05-23,1.18428768704
2010-05-24,1.26156349697
2010-05-25,1.27785482442
2010-05-26,1.21903900155
2010-05-27,1.18919805129
2010-05-30,1.23875500823
2010-05-31,1.06444251212
2010-06-01,0.994267296807
2010-06-02,0.988992369853
2010-06-03,0.855826854348
2010-06-06,0.927717940195
2010-06-07,0.867317861526
2010-06-08,0.844130874869
2010-06-09,0.790074523833
2010-06-10,0.789778647753
2010-06-13,0.768805972356
2010-06-14,0.721242255164
2010-06-15,0.725124633979
2010-06-16,0.694727195147
2010-06-17,0.677958873553
2010-06-20,0.649083630867
2010-06-21,0.623010611353
2010-06-22,0.65460643612
2010-06-23,0.674335997142
2010-06-24,0.677873192422
2010-06-27,0.668961949816
2010-06-28,0.737556884317
2010-06-29,0.694447702874
2010-06-30,0.542810924169
2010-07-01,0.55241729039
2010-07-04,0.541750885798
2010-07-05,0.517803372074
2010-07-06,0.506283645092
2010-07-07,0.508521163275
2010-07-08,0.504686033651
2010-07-11,0.498168473387
2010-07-12,0.475117282037
2010-07-13,0.509144783456
2010-07-14,0.531872463748
2010-07-15,0.598061113612
2010-07-18,0.596329655039
2010-07-19,0.584374667736
2010-07-20,0.568839145649
2010-07-21,0.539262147354
2010-07-22,0.540252561647
2010-07-25,0.549671661123
2010-07-26,0.547701280905
2010-07-27,0.525546978631
2010-07-28,0.502388410586
2010-07-29,0.507490852242
2010-08-01,0.503729446985
2010-08-02,0.516126841238
2010-08-03,0.49585847509
2010-08-04,0.488863068269
2010-08-05,0.49012761464
2010-08-08,0.47282501607
2010-08-09,0.504798034156
2010-08-10,0.55185540787
2010-08-11,0.538273463785
2010-08-12,0.52566167394
2010-08-15,0.495473979942
2010-08-16,0.474463744344
2010-08-17,0.46382309483
2010-08-18,0.47537551146
2010-08-19,0.478712056063
2010-08-22,0.472571914129
2010-08-23,0.511584002256
2010-08-24,0.493487970994
2010-08-25,0.468924309497
2010-08-26,0.460896565154
2010-08-29,0.469701723232
2010-08-30,0.509288304491
2010-08-31,0.496899280479
2010-09-01,0.496481198866
2010-09-02,0.530090062383
2010-09-05,0.53395280707
2010-09-06,0.526453639014
2010-09-07,0.49916579573
2010-09-08,0.495260020861
2010-09-09,0.475004236344
2010-09-12,0.462107829086
2010-09-13,0.456045126627
2010-09-14,0.471478861436
2010-09-15,0.444792015297
2010-09-16,0.465463937956
2010-09-19,0.441793465303
2010-09-20,0.485590610029
2010-09-21,0.521824985935
2010-09-22,0.521843693369
2010-09-23,0.493776565873
2010-09-26,0.500602660541
2010-09-27,0.486247337517
2010-09-28,0.47809085555
2010-09-29,0.491210816929
2010-09-30,0.530739063032
2010-10-03,0.53344684524
2010-10-04,0.563306638018
2010-10-05,0.66420106912
2010-10-06,0.639268742854
2010-10-07,0.629790009043
2010-10-10,0.643160290593
2010-10-11,0.60716676798
2010-10-12,0.621783462468
2010-10-13,0.656419469491
2010-10-14,0.632782041061
2010-10-17,0.637439353167
2010-10-18,0.757427722135
2010-10-19,0.709946448864
2010-10-20,0.746414813532
2010-10-21,0.716349147025
2010-10-24,0.684366169902
2010-10-25,0.696794411947
2010-10-26,0.706487259003
2010-10-27,0.663383659705
2010-10-28,0.685440369911
2010-11-01,0.697791882859
2010-11-02,0.684132926969
2010-11-03,0.652233915253
2010-11-04,0.66252292646
2010-11-05,0.701270083964
2010-11-08,0.738358184691
2010-11-09,0.698151549624
2010-11-10,0.712551381286
2010-11-11,0.719640599258
2010-11-12,0.70183429319
2010-11-15,0.671627160326
2010-11-16,0.674618417757
2010-11-17,0.63563883121
2010-11-18,0.647482737687
2010-11-19,0.673631486871
2010-11-22,0.652459959937
2010-11-23,0.661254694138
2010-11-24,0.6210124644
2010-11-25,0.636487839315
2010-11-26,0.65713988415
2010-11-29,0.641211187535
2010-11-30,0.653026600888
2010-12-01,0.633696384479
2010-12-02,0.638288385266
2010-12-03,0.645139114041
2010-12-06,0.676998252981
2010-12-07,0.654847178059
2010-12-08,0.653863549467
2010-12-09,0.668470548324
2010-12-10,0.664666158958
2010-12-13,0.632679503276
2010-12-14,0.645843387652
2010-12-15,0.624069997536
2010-12-16,0.590179144296
2010-12-17,0.595662323902
2010-12-20,0.55936619937
2010-12-21,0.526771252931
2010-12-22,0.551195338082
2010-12-23,0.528052806428
2010-12-24,0.520605550606
2010-12-27,0.5040823947
2010-12-28,0.502781702051
2010-12-29,0.473489440392
2010-12-30,0.504306097265
2010-12-31,0.507423816748
2011-01-03,0.495907071607
2011-01-04,0.545446760616
2011-01-05,0.546734458995
2011-01-06,0.585992033973
2011-01-07,0.560733556699
2011-01-10,0.576819241715
2011-01-11,0.564410538813
2011-01-12,0.560648355872
2011-01-13,0.532396217896
2011-01-14,0.564548236303
2011-01-17,0.533061274865
2011-01-18,0.500497588955
2011-01-19,0.509799865902
2011-01-20,0.493679012122
2011-01-21,0.474275257031
2011-01-24,0.454040289014
2011-01-25,0.447445250754
2011-01-26,0.426909516328
2011-01-27,0.430012574429
2011-01-28,0.458391733023
2011-01-31,0.436335041865
2011-02-01,0.413636633216
2011-02-02,0.417318221824
2011-02-03,0.415563383803
2011-02-04,0.424650335954
2011-02-07,0.426436633791
2011-02-08,0.418487492045
2011-02-09,0.412953809
2011-02-10,0.444399113686
2011-02-11,0.447731045119
2011-02-14,0.443803862577
2011-02-15,0.43128841134
2011-02-16,0.414493464895
2011-02-17,0.407397406644
2011-02-18,0.435544271484
2011-02-21,0.457246255112
2011-02-22,0.457443338152
2011-02-23,0.467973255853
2011-02-24,0.443384507363
2011-02-25,0.308214196111
2011-02-28,0.149810508172
2011-03-01,-0.0131685312253
2011-03-02,-0.162658547801
2011-03-03,-0.292971456886
2011-03-04,-0.388109020983
2011-03-07,-0.518947290582
2011-03-08,-0.59868278884
2011-03-09,-0.677896350375
2011-03-10,-0.759581516956
2011-03-11,-0.842822680223
2011-03-14,-0.924182904406
2011-03-15,-0.949105721622
2011-03-16,-1.01031019254
2011-03-17,-1.06714291553
2011-03-18,-1.11104737657
2011-03-21,-1.11116722176
2011-03-22,-1.18296782556
2011-03-23,-1.2337499142
2011-03-24,-1.28681723195
2011-03-25,-1.32648618013
2011-03-27,-1.358148176
2011-03-28,-1.38828766588
2011-03-29,-1.32056539888
2011-03-30,-1.25657183895
2011-03-31,-1.21303914819
2011-04-03,-1.20180900853
2011-04-04,-1.25309296125
2011-04-05,-1.29701844876
2011-04-06,-1.28976716709
2011-04-07,-1.18621630021
2011-04-10,-1.1632293731
2011-04-11,-1.18253295228
2011-04-12,-1.20008817181
2011-04-13,-1.23412701055
2011-04-14,-1.23412701055
2011-04-17,-1.23412701055
2011-04-18,-1.25511616872
2011-04-19,-1.21967202195
2011-04-20,-1.22894569963
2011-04-21,-1.27651121353
2011-04-24,-1.31993759256
2011-04-25,-1.37990437241
2011-04-26,-1.37239930425
2011-04-27,-1.32952307115
2011-04-28,-1.34467114888
2011-05-01,-1.34196837148
2011-05-02,-1.30052585562
2011-05-03,-1.26711292917
2011-05-04,-1.21803000374
2011-05-05,-1.22566206806
2011-05-08,-1.20830939099
2011-05-09,-1.24515959425
2011-05-10,-1.25800440802
2011-05-11,-1.26142412817
2011-05-12,-1.23590045299
2011-05-15,-1.24703588197
2011-05-16,-1.28853493829
2011-05-17,-1.28474359103
2011-05-18,-1.30511629516
2011-05-19,-1.34174351723
2011-05-22,-1.33711001686
2011-05-23,-1.33432993801
2011-05-24,-1.34041682535
2011-05-25,-1.37275162378
2011-05-26,-1.32383001011
2011-05-29,-1.27626190789
2011-05-30,-1.28802414897
2011-05-31,-1.28170357535
2011-06-01,-1.30651365505
2011-06-02,-1.19199768057
2011-06-05,-1.22772126574
2011-06-06,-1.21793558
2011-06-07,-1.26366970076
2011-06-08,-1.29415737935
2011-06-09,-1.30381333502
2011-06-12,-1.32988950626
2011-06-13,-1.33622198608
2011-06-14,-1.35027619953
2011-06-15,-1.30124947366
2011-06-16,-1.34046430012
2011-06-19,-1.3534540332
2011-06-20,-1.37181791546
2011-06-21,-1.39776498036
2011-06-22,-1.45411963661
2011-06-23,-1.48639052902
2011-06-26,-1.50558721588
2011-06-27,-1.50857578053
2011-06-28,-1.45575731696
2011-06-29,-1.43415268835
2011-06-30,-1.4233609791
2011-07-03,-1.45408772422
2011-07-04,-1.46298193294
2011-07-05,-1.45975951954
2011-07-06,-1.46750472289
2011-07-07,-1.45396483026
2011-07-10,-1.38476541085
2011-07-11,-1.38010828907
2011-07-12,-1.39206688076
2011-07-13,-1.42499963173
2011-07-14,-1.45668410206
2011-07-17,-1.47389196954
2011-07-18,-1.50799391422
2011-07-19,-1.52042096089
2011-07-20,-1.52862995108
2011-07-21,-1.53773093099
2011-07-24,-1.53101829901
2011-07-25,-1.48447800292
2011-07-26,-1.41575192216
2011-07-27,-1.35785729808
2011-07-28,-1.33922860872
2011-07-31,-1.33820008357
2011-08-01,-1.31543191858
2011-08-02,-1.35861973015
2011-08-03,-1.30149155357
2011-08-04,-1.25842863074
2011-08-07,-1.22140131969
2011-08-08,-1.07464451897
2011-08-09,-1.01378572224
2011-08-10,-1.04118516481
2011-08-11,-1.05886409546
2011-08-14,-1.02907631248
2011-08-15,-0.979609719002
2011-08-16,-1.02534214344
2011-08-17,-1.028258589
2011-08-18,-1.04612032329
2011-08-21,-1.05420502131
2011-08-22,-1.09830170912
2011-08-23,-1.14885694252
2011-08-24,-1.16808121636
2011-08-25,-1.20404140634
2011-08-28,-1.22412758961
2011-08-29,-1.23908297181
2011-08-30,-1.24446974807
2011-08-31,-1.2332106733
2011-09-01,-1.10929929056
2011-09-04,-0.996088069029
2011-09-05,-0.971528994786
2011-09-06,-1.04628800828
2011-09-07,-1.09464159101
2011-09-08,-1.08965091522
2011-09-11,-1.00778000968
2011-09-12,-0.952083051381
2011-09-13,-0.941754557333
2011-09-14,-0.981683528094
2011-09-15,-0.991044048368
2011-09-18,-0.783550767659
2011-09-19,-0.577206361152
2011-09-20,-0.43290367716
2011-09-21,0.0333113340978
2011-09-22,0.170957991573
2011-09-25,0.23594992621
2011-09-26,0.286321701041
2011-09-27,0.279142284816
2011-09-28,0.217414145899
2011-09-29,0.197418896669
2011-10-02,0.248325373717
2011-10-03,0.25457670496
2011-10-04,0.288096892484
2011-10-05,0.289290113768
2011-10-06,0.404954811306
2011-10-09,0.47614285548
2011-10-10,0.381497292624
2011-10-11,0.287330160778
2011-10-12,0.222061584951
2011-10-13,0.224276291628
2011-10-16,0.116580638379
2011-10-17,0.134459543171
2011-10-18,0.0531344696761
2011-10-19,0.0326791678981
2011-10-20,-0.0339850419485
2011-10-23,-0.0508042064903
2011-10-24,-0.0915503478769
2011-10-25,-0.159687851714
2011-10-26,-0.142769372762
2011-10-27,-0.0232202348378
2011-10-31,-0.0282441236063
2011-11-01,0.0642782941178
2011-11-02,0.0751765267276
2011-11-03,0.0158239459739
2011-11-04,-0.0300507927695
2011-11-07,-0.0977770337262
2011-11-08,-0.188750211217
2011-11-09,-0.230728915563
2011-11-10,-0.231647180888
2011-11-11,-0.304189332658
2011-11-14,-0.349008347045
2011-11-15,-0.38360485839
2011-11-16,-0.444184239595
2011-11-17,-0.494154443374
2011-11-18,-0.551271796505
2011-11-21,-0.509708854486
2011-11-22,-0.51065473927
2011-11-23,-0.445756182651
2011-11-24,-0.310478051054
2011-11-25,-0.268007580373
2011-11-28,-0.256655223788
2011-11-29,-0.215812052963
2011-11-30,-0.139824369619
2011-12-01,-0.0755464453898
2011-12-02,-0.0757241285111
2011-12-05,-0.143883159052
2011-12-06,-0.228976116481
2011-12-07,-0.303926137531
2011-12-08,-0.321048926097
2011-12-09,-0.356533893199
2011-12-12,-0.34587935355
2011-12-13,-0.30198884181
2011-12-14,-0.199521404939
2011-12-15,-0.245904104197
2011-12-16,-0.252759546537
2011-12-19,-0.313816152333
2011-12-20,-0.346861477631
2011-12-21,-0.390110532124
2011-12-22,-0.461311110827
2011-12-23,-0.484560142787
2011-12-26,-0.594836365809
2011-12-27,-0.638849553978
2011-12-28,-0.65902511375
2011-12-29,-0.690693203897
2011-12-30,-0.696449198319
2012-01-02,-0.758332542335
2012-01-03,-0.724151555284
2012-01-04,-0.630700120293
2012-01-05,-0.659217966122
2012-01-06,-0.650223691525
2012-01-09,-0.696562691703
2012-01-10,-0.607299088833
2012-01-11,-0.563581915013
2012-01-12,-0.613153352234
2012-01-13,-0.596363429742
2012-01-16,-0.697175556309
2012-01-17,-0.718727959241
2012-01-18,-0.768303512246
2012-01-19,-0.796969921991
2012-01-20,-0.873475630745
2012-01-23,-0.898325071609
2012-01-24,-0.956874680818
2012-01-25,-0.988331154241
2012-01-26,-0.979848412646
2012-01-27,-0.978992700343
2012-01-30,-0.640445327723
2012-01-31,-0.695242963343
2012-02-01,-0.738366297644
2012-02-02,-0.765845285801
2012-02-03,-0.782492707026
2012-02-06,-0.818644851208
2012-02-07,-0.87697338214
2012-02-08,-0.930396524095
2012-02-09,-0.965961489177
2012-02-10,-1.0045290882
2012-02-13,-1.03701606542
2012-02-14,-1.09415842237
2012-02-15,-1.13724180268
2012-02-16,-1.1532281811
2012-02-17,-1.15698669802
2012-02-20,-1.22292775483
2012-02-21,-1.24387968527
2012-02-22,-1.28957186209
2012-02-23,-1.2843306097
2012-02-24,-1.31456932713
2012-02-27,-1.33340982177
2012-02-28,-1.34536157815
2012-02-29,-1.28661798103
2012-03-01,-1.26311109144
2012-03-02,-1.27232400165
2012-03-05,-1.24688185002
2012-03-06,-1.21623587604
2012-03-07,-1.08320118184
2012-03-08,-1.07791938947
2012-03-09,-1.08964383379
2012-03-12,-0.973042079955
2012-03-13,-0.952717775342
2012-03-14,-0.931258478769
2012-03-15,-0.959740756193
2012-03-16,-0.975102608025
2012-03-19,-1.02336418144
2012-03-20,-0.996858713008
2012-03-21,-0.982962936946
2012-03-22,-1.02290287424
2012-03-23,-1.04594772109
2012-03-25,-1.02817605473
2012-03-26,-1.059343495
2012-03-27,-1.08015497293
2012-03-28,-1.07250403891
2012-03-29,-1.07685510994
2012-04-01,-1.12376116859
2012-04-02,-1.14440577497
2012-04-03,-1.10371148987
2012-04-04,-1.10989831555
2012-04-05,-1.17661609955
2012-04-08,-1.2285909481
2012-04-09,-1.17042792661
2012-04-10,-1.17554461823
2012-04-11,-1.18140442961
2012-04-12,-1.15654401209
2012-04-15,-1.12606868724
2012-04-16,-1.1365710914
2012-04-17,-1.11971697863
2012-04-18,-1.0981542099
2012-04-19,-1.09439107212
2012-04-22,-1.04803095152
2012-04-23,-1.03528393903
2012-04-24,-1.06889993381
2012-04-25,-1.06870451747
2012-04-26,-1.08515202519
2012-04-29,-1.07899182174
2012-04-30,-1.08990059857
2012-05-01,-1.08894419989
2012-05-02,-1.07438341023
2012-05-03,-1.03203913635
2012-05-06,-1.04001962269
2012-05-07,-0.992739253622
2012-05-08,-0.892297570233
2012-05-09,-0.865176623216
2012-05-10,-0.838884288984
2012-05-13,-0.793776154587
2012-05-14,-0.782191700706
2012-05-15,-0.811344225605
2012-05-16,-0.836936297009
2012-05-17,-0.830029159826
2012-05-20,-0.78777073009
2012-05-21,-0.761464399644
2012-05-22,-0.61952573487
2012-05-23,-0.46444499411
2012-05-24,-0.423171504167
2012-05-27,-0.327938104544
2012-05-28,-0.341128547938
2012-05-29,-0.381830824856
2012-05-30,-0.396345244238
2012-05-31,-0.402432267935
2012-06-03,-0.461297194608
2012-06-04,-0.437986110948
2012-06-05,-0.399711138948
2012-06-06,-0.500527612624
2012-06-07,-0.532430970068
2012-06-10,-0.530275715066
2012-06-11,-0.506841517668
2012-06-12,-0.563791629368
2012-06-13,-0.61002228965
2012-06-14,-0.600477134674
2012-06-17,-0.596417699919
2012-06-18,-0.610755320822
2012-06-19,-0.540923997226
2012-06-20,-0.531510511129
2012-06-21,-0.515009232882
2012-06-24,-0.540335200297
2012-06-25,-0.543158346003
2012-06-26,-0.581254965364
2012-06-27,-0.583741998712
2012-06-28,-0.44784620486
2012-07-01,-0.230752240693
2012-07-02,-0.260861910951
2012-07-03,-0.241890253821
2012-07-04,-0.285985654596
2012-07-05,-0.28849999639
2012-07-08,-0.321505945825
2012-07-09,-0.383564596071
2012-07-10,-0.446733474165
2012-07-11,-0.458829185456
2012-07-12,-0.51440482602
2012-07-15,-0.61183281691
2012-07-16,-0.692324286147
2012-07-17,-0.746003008116
2012-07-18,-0.779957635059
2012-07-19,-0.776011804585
2012-07-22,-0.743893811095
2012-07-23,-0.78908507213
2012-07-24,-0.848416416837
2012-07-25,-0.85214478083
2012-07-26,-0.883691308588
2012-07-29,-0.861619485415
2012-07-30,-0.857383654211
2012-07-31,-0.881534857858
2012-08-01,-0.866268653178
2012-08-02,-0.864287466567
2012-08-05,-0.824385938361
2012-08-06,-0.859762903442
2012-08-07,-0.875983976701
2012-08-08,-0.92467386593
2012-08-09,-0.991688327682
2012-08-12,-0.974097006595
2012-08-13,-0.982890423345
2012-08-14,-0.999185455484
2012-08-15,-1.00803450303
2012-08-16,-1.0103389546
2012-08-19,-1.01691319335
2012-08-20,-1.02708270191
2012-08-21,-1.03356955643
2012-08-22,-1.0791330494
2012-08-23,-1.08338015224
2012-08-26,-1.08954108603
2012-08-27,-1.06348215191
2012-08-28,-1.06182605713
2012-08-29,-1.07248282972
2012-08-30,-1.05983691736
2012-09-02,-1.02407466727
2012-09-03,-1.01969040424
2012-09-04,-1.05183349492
2012-09-05,-1.07465953168
2012-09-06,-1.06222767319
2012-09-09,-1.02814231769
2012-09-10,-1.0419441368
2012-09-11,-1.05549917684
2012-09-12,-1.08138917233
2012-09-13,-1.08732278639
2012-09-16,-1.04146754336
2012-09-17,-1.05505662578
2012-09-18,-1.05363282173
2012-09-19,-1.07263500942
2012-09-20,-1.13721053465
2012-09-23,-1.1398959737
2012-09-24,-1.16382248484
2012-09-25,-1.16534613544
2012-09-26,-1.18412898475
2012-09-27,-1.22669841686
2012-09-30,-1.23592550434
2012-10-01,-1.25447089358
2012-10-02,-1.26762675388
2012-10-03,-1.27319132357
2012-10-04,-1.26283805596
2012-10-07,-1.27317906637
2012-10-08,-1.21478743991
2012-10-09,-1.22486531146
2012-10-10,-1.24309211677
2012-10-11,-1.25964747484
2012-10-14,-1.2728031119
2012-10-15,-1.26284710627
2012-10-16,-1.26468822107
2012-10-17,-1.27267988139
2012-10-18,-1.27160145968
2012-10-21,-1.28279464296
2012-10-22,-1.27360308684
2012-10-23,-1.28391423161
2012-10-24,-1.28831541003
2012-10-25,-1.28242483912
2012-10-29,-1.24037129864
2012-10-30,-1.29222659521
2012-10-31,-1.27977460021
2012-11-01,-1.33546696153
2012-11-02,-1.38644223191
2012-11-05,-1.35765270169
2012-11-06,-1.35050479281
2012-11-07,-1.33906352542
2012-11-08,-1.37832638864
2012-11-09,-1.34272591007
2012-11-12,-1.32444962571
2012-11-13,-1.32928121199
2012-11-14,-1.30383554663
2012-11-15,-1.29757545967
2012-11-16,-1.28067654463
2012-11-19,-1.21398919999
2012-11-20,-1.22338502353
2012-11-21,-1.2191760768
2012-11-22,-1.2008559988
2012-11-23,-1.1720194555
2012-11-26,-1.0827916606
2012-11-27,-1.11597050727
2012-11-28,-1.11573870026
2012-11-29,-1.07672253082
2012-11-30,-1.09850984445
2012-12-03,-1.00677255205
2012-12-04,-0.917153532521
2012-12-05,-0.911537711672
2012-12-06,-0.815787540723
2012-12-07,-0.822216071296
2012-12-10,-0.84333625657
2012-12-11,-0.859991596604
2012-12-12,-0.886173714084
2012-12-13,-0.900138768297
2012-12-14,-0.938973598683
2012-12-17,-0.942885178842
2012-12-18,-0.942452502125
2012-12-19,-0.912488125122
2012-12-20,-0.85251472699
2012-12-21,-0.868144929422
2012-12-24,-0.864551592792
2012-12-25,-0.864540716212
2012-12-26,-0.809470263291
2012-12-27,-0.71953249408
2012-12-28,-0.74207469943
2012-12-31,-0.785548234152
2013-01-01,-0.859543980454
2013-01-02,-0.909038622557
2013-01-03,-0.937999434766
2013-01-04,-0.960457226666
2013-01-07,-0.935119319063
2013-01-08,-0.921938174021
2013-01-09,-0.946282263975
2013-01-10,-0.931195168009
2013-01-11,-0.914229461178
2013-01-14,-0.932472587181
2013-01-15,-0.966411131071
2013-01-16,-0.966411131071
2013-01-17,-0.966411131071
2013-01-18,-1.00127674649
2013-01-21,-1.03463214933
2013-01-22,-1.06416090703
2013-01-23,-1.05402789276
2013-01-24,-1.05866118845
2013-01-25,-1.12491184453
2013-01-28,-1.0953832035
2013-01-29,-0.975527360288
2013-01-30,-1.01669170926
2013-01-31,-1.01889176379
2013-02-01,-1.04255727398
2013-02-04,-1.0549207493
2013-02-05,-1.05420826314
2013-02-06,-1.04966713666
2013-02-07,-1.03232174906
2013-02-08,-0.94804733511
2013-02-11,-0.964903178114
2013-02-12,-0.987362929441
2013-02-13,-1.01498576412
2013-02-14,-1.03592554413
2013-02-15,-1.07278384417
2013-02-18,-1.09622397642
2013-02-19,-1.10842474655
2013-02-20,-1.10949590654
2013-02-21,-1.11501934338
2013-02-22,-1.15859533916
2013-02-25,-1.19404096902
2013-02-26,-1.22686221982
2013-02-27,-1.24787051496
2013-02-28,-1.26132900577
2013-03-01,-1.30190226384
2013-03-04,-1.3020644072
2013-03-05,-1.25658689765
2013-03-06,-1.29066325596
2013-03-07,-1.31515884488
2013-03-08,-1.29384394214
2013-03-11,-1.25618342128
2013-03-12,-1.26485403994
2013-03-13,-1.3038031877
2013-03-14,-1.33806800158
2013-03-15,-1.35906391543
2013-03-18,-1.30083237382
2013-03-19,-1.29140737113
2013-03-20,-1.30718172289
2013-03-21,-1.33221572843
2013-03-22,-1.29976099497
2013-03-25,-1.27001601628
2013-03-26,-1.28433496016
2013-03-27,-1.29576891681
2013-03-28,-1.30007699056
2013-03-29,-1.34299868133
2013-03-31,-1.40062540763
2013-04-01,-1.39445614587
2013-04-02,-1.38798892527
2013-04-03,-1.38902347466
2013-04-04,-1.32443418559
2013-04-07,-1.24003934953
2013-04-08,-1.26054648546
2013-04-09,-1.2466378475
2013-04-10,-1.23446628056
2013-04-11,-1.24389171582
2013-04-14,-1.21970771121
2013-04-15,-1.17542513851
2013-04-16,-1.14023312785
2013-04-17,-1.09683225558
2013-04-18,-1.05505845447
2013-04-21,-1.02478188268
2013-04-22,-1.04660338993
2013-04-23,-1.06464449915
2013-04-24,-1.05920586909
2013-04-25,-1.04491136981
2013-04-28,-1.06565888108
2013-04-29,-1.09009917505
2013-04-30,-1.106875753
2013-05-01,-1.1054451485
2013-05-02,-1.12223286663
2013-05-05,-1.12525045608
2013-05-06,-1.12435541492
2013-05-07,-1.15125025035
2013-05-08,-1.17585289428
2013-05-09,-1.14990204783
2013-05-12,-1.15611730635
2013-05-13,-1.13305634089
2013-05-14,-1.11570948709
2013-05-15,-1.1191925319
2013-05-16,-1.10135835684
2013-05-19,-1.11325884982
2013-05-20,-1.11802562229
2013-05-21,-1.11801655221
2013-05-22,-1.1220736991
2013-05-23,-1.10810050946
2013-05-26,-1.07442877415
2013-05-27,-1.05646789636
2013-05-28,-0.998027677359
2013-05-29,-0.963719972847
2013-05-30,-0.87901430988
2013-06-02,-0.861339577486
2013-06-03,-0.789861906342
2013-06-04,-0.683947201928
2013-06-05,-0.695729022678
2013-06-06,-0.677104257017
2013-06-09,-0.623223677808
2013-06-10,-0.558409955767
2013-06-11,-0.498226380808
2013-06-12,-0.536208817337
2013-06-13,-0.475024769987
2013-06-16,-0.383473677588
2013-06-17,-0.210509772553
2013-06-18,-0.29897713183
2013-06-19,-0.0987907791718
2013-06-20,-0.0906562664364
2013-06-23,-0.124861441732
2013-06-24,-0.14923234255
2013-06-25,-0.164101944954
2013-06-26,-0.171627146534
2013-06-27,-0.166789462044
2013-06-30,-0.176339912999
2013-07-01,-0.130516136967
2013-07-02,-0.128245497439
2013-07-03,-0.196719109578
2013-07-04,-0.215956883177
2013-07-07,-0.256362338186
2013-07-08,-0.34303017511
2013-07-09,-0.362533539262
2013-07-10,-0.416119358496
2013-07-11,-0.475485486201
2013-07-14,-0.500678601551
2013-07-15,-0.405450973338
2013-07-16,-0.377629386139
2013-07-17,-0.362881169522
2013-07-18,-0.379857875585
2013-07-21,-0.435531768308
2013-07-22,-0.458774681281
2013-07-23,-0.44118664781
2013-07-24,-0.406747709928
2013-07-25,-0.482303325833
2013-07-28,-0.511443716177
2013-07-29,-0.559935624533
2013-07-30,-0.550642252331
2013-07-31,-0.539795493394
2013-08-01,-0.537483724357
2013-08-04,-0.46882097348
2013-08-05,-0.531443314402
2013-08-06,-0.570007312387
2013-08-07,-0.571819624608
2013-08-08,-0.540613995687
2013-08-11,-0.555611840685
2013-08-12,-0.550322666356
2013-08-13,-0.577191163228
2013-08-14,-0.548188607551
2013-08-15,-0.528278803401
2013-08-18,-0.389692835293
2013-08-19,-0.42175283111
2013-08-20,-0.389810786466
2013-08-21,-0.317654017255
2013-08-22,-0.152725056856
2013-08-25,0.115717536751
2013-08-26,0.188718377841
2013-08-27,0.234702417078
2013-08-28,0.203125755924
2013-08-29,0.163457653415
2013-09-01,0.33208327478
2013-09-02,0.28800784587
2013-09-03,0.232668885856
2013-09-04,0.255558811282
2013-09-05,0.351089833382
2013-09-08,0.795287743738
2013-09-09,0.737711511033
2013-09-10,0.656532913865
2013-09-11,0.544569051869
2013-09-12,0.435059624787
2013-09-15,0.356652867539
2013-09-16,0.283846597284
2013-09-17,0.261323768029
2013-09-18,0.383418864699
2013-09-19,0.317939059398
2013-09-22,0.815500256802
2013-09-23,0.689594876306
2013-09-24,0.660631514893
2013-09-25,0.606391549564
2013-09-26,0.52978905111
2013-09-29,0.463092553574
2013-09-30,0.366424025389
2013-10-01,0.251162642762
2013-10-02,0.206954765526
2013-10-03,0.0931066676898
2013-10-06,0.0250829063994
2013-10-07,0.0250829063994
2013-10-08,0.0250829063994
2013-10-09,-0.0308212463827
2013-10-10,-0.0493250894923
2013-10-13,-0.111023929243
2013-10-14,-0.177152046568
2013-10-15,-0.223232808109
2013-10-16,-0.292516774134
2013-10-17,-0.314472041189
2013-10-20,-0.374989515303
2013-10-21,-0.36886580273
2013-10-22,-0.461326996557
2013-10-23,-0.465620974447
2013-10-24,-0.508740718284
2013-10-28,-0.509812071453
2013-10-29,-0.554698750817
2013-10-30,-0.643673539537
2013-10-31,-0.610753996296
2013-11-01,-0.451171731813
2013-11-04,-0.486400833661
2013-11-05,-0.428680388539
2013-11-06,-0.369637391785
2013-11-07,-0.391572633208
2013-11-08,-0.319564522708
2013-11-11,-0.323473634762
2013-11-12,-0.338061396868
2013-11-13,-0.377242410417
2013-11-14,-0.41350580004
2013-11-15,-0.426743350081
2013-11-18,-0.365673706277
2013-11-19,-0.252028294751
2013-11-20,-0.367330246474
2013-11-21,-0.331761913553
2013-11-22,-0.315648488881
2013-11-25,-0.313804847826
2013-11-26,-0.352826608286
2013-11-27,-0.385267114132
2013-11-28,-0.36572176602
2013-11-29,-0.374443134704
2013-12-02,-0.375451319054
2013-12-03,-0.413252243883
2013-12-04,-0.443102469437
2013-12-05,-0.450331794879
2013-12-06,-0.365944382215
2013-12-09,-0.293602651906
2013-12-10,-0.329017996896
2013-12-11,-0.302832365135
2013-12-12,-0.298581011425
2013-12-13,-0.365145509594
2013-12-16,-0.405770018982
2013-12-17,-0.499474433284
2013-12-18,-0.507089664339
2013-12-19,-0.481906607056
2013-12-20,-0.406647173586
2013-12-23,-0.427575474707
2013-12-24,-0.403656585973
2013-12-25,-0.537762790301
2013-12-26,-0.651877254155
2013-12-27,-0.695229293182
2013-12-30,-0.619962250271
2013-12-31,-0.647447207133
2014-01-01,-0.726261098303
2014-01-02,-0.61956540213
2014-01-03,-0.64077839463
2014-01-06,-0.674162501983
2014-01-07,-0.686657245849
2014-01-08,-0.69418804586
2014-01-09,-0.699700112471
2014-01-10,-0.690392039738
2014-01-13,-0.616654239838
2014-01-14,-0.642871290646
2014-01-15,-0.641325501067
2014-01-16,-0.640999679357
2014-01-17,-0.688398512169
2014-01-20,-0.652539139863
2014-01-21,-0.675075553541
2014-01-22,-0.686387493217
2014-01-23,-0.694302604487
2014-01-24,-0.591480645173
2014-01-27,-0.600631816321
2014-01-28,-0.607280403182
2014-01-29,-0.627870786462
2014-01-30,-0.628506465056
2014-01-31,-0.576606485481
2014-02-03,-0.607519105016
2014-02-04,-0.617371128779
2014-02-05,-0.554441967222
2014-02-06,-0.556997152549
2014-02-07,-0.573415045609
2014-02-10,-0.611205795224
2014-02-11,-0.594182248482
2014-02-12,-0.635662672111
2014-02-13,-0.65422121152
2014-02-14,-0.598275248629
2014-02-17,-0.643896840256
2014-02-18,-0.656322838933
2014-02-19,-0.676730895789
2014-02-20,-0.683115379737
2014-02-21,-0.653564912488
2014-02-24,-0.610973317177
2014-02-25,-0.65642466219
2014-02-26,-0.672389922545
2014-02-27,-0.727127228935
2014-02-28,-0.716976890414
2014-03-03,-0.760398358864
2014-03-04,-0.802196116732
2014-03-05,-0.843964394452
2014-03-06,-0.803295147133
2014-03-07,-0.775139468525
2014-03-10,-0.740865011227
2014-03-11,-0.7607757189
2014-03-12,-0.774460001736
2014-03-13,-0.80157906257
2014-03-14,-0.837108176127
2014-03-17,-0.82907990896
2014-03-18,-0.880012994355
2014-03-19,-0.912895629813
2014-03-20,-0.909431519571
2014-03-21,-0.879607883954
2014-03-24,-0.904389381856
2014-03-25,-0.903750131322
2014-03-26,-0.893178975101
2014-03-27,-0.812041889529
2014-03-28,-0.74483035567
2014-03-30,-0.761870503331
2014-03-31,-0.78877959514
2014-04-01,-0.787529401479
2014-04-02,-0.776021472094
2014-04-03,-0.725795126337
2014-04-06,-0.616335260366
2014-04-07,-0.589340418435
2014-04-08,-0.602705549679
2014-04-09,-0.603660406429
2014-04-10,-0.600482168124
2014-04-13,-0.642244714307
2014-04-14,-0.625963457549
2014-04-15,-0.66147144029
2014-04-16,-0.690747761014
2014-04-17,-0.756364486453
2014-04-20,-0.838727250424
2014-04-21,-0.842408649628
2014-04-22,-0.862456126611
2014-04-23,-0.859638654367
2014-04-24,-0.807504883527
2014-04-27,-0.794939762913
2014-04-28,-0.767382205497
2014-04-29,-0.746227461193
2014-04-30,-0.780905216459
2014-05-01,-0.794629300171
2014-05-04,-0.794439416604
2014-05-05,-0.805349097828
2014-05-06,-0.790720779749
2014-05-07,-0.799678875432
2014-05-08,-0.825365166354
2014-05-11,-0.851803448207
2014-05-12,-0.875614209114
2014-05-13,-0.908810189228
2014-05-14,-0.866837009148
2014-05-15,-0.898812261302
2014-05-18,-0.935155155331
2014-05-19,-0.927883964065
2014-05-20,-0.978409749246
2014-05-21,-0.976548199243
2014-05-22,-0.990339998423
2014-05-25,-1.02679677059
2014-05-26,-0.994503105262
2014-05-27,-1.00109988284
2014-05-28,-1.03124509362
2014-05-29,-1.00085089214
2014-06-01,-0.92052358671
2014-06-02,-0.885473956948
2014-06-03,-0.896163205638
2014-06-04,-0.909414730465
2014-06-05,-0.868876538008
2014-06-08,-0.848232437615
2014-06-09,-0.824258991782
2014-06-10,-0.82601756098
2014-06-11,-0.873103037939
2014-06-12,-0.876915735769
2014-06-15,-0.888955349239
2014-06-16,-0.848769950106
2014-06-17,-0.848777736004
2014-06-18,-0.754554140481
2014-06-19,-0.740228267716
2014-06-22,-0.772008653754
2014-06-23,-0.785629108221
2014-06-24,-0.803450129575
2014-06-25,-0.795978599856
2014-06-26,-0.806039251538
2014-06-29,-0.801708578216
2014-06-30,-0.819859195625
2014-07-01,-0.810846057297
2014-07-02,-0.765153921253
2014-07-03,-0.767438955126
2014-07-06,-0.774364696108
2014-07-07,-0.816640403534
2014-07-08,-0.823747080998
2014-07-09,-0.822955486629
2014-07-10,-0.856956498684
2014-07-13,-0.896289051193
2014-07-14,-0.880708039859
2014-07-15,-0.898758826004
2014-07-16,-0.840874687103
2014-07-17,-0.819643997682
2014-07-20,-0.751890549894
2014-07-21,-0.79392388887
2014-07-22,-0.814108684443
2014-07-23,-0.854654131263
2014-07-24,-0.853502553326
2014-07-27,-0.889016956616
2014-07-28,-0.905735183085
2014-07-29,-0.842918343299
2014-07-30,-0.787914214071
2014-07-31,-0.757532775851
2014-08-03,-0.78216459927
2014-08-04,-0.805406539245
2014-08-05,-0.773775649331
2014-08-06,-0.770640921791
2014-08-07,-0.761078516974
2014-08-10,-0.758481194901
2014-08-11,-0.780458545896
2014-08-12,-0.797540292881
2014-08-13,-0.838530130223
2014-08-14,-0.834834940924
2014-08-17,-0.860596767184
2014-08-18,-0.885627060691
2014-08-19,-0.88891471701
2014-08-20,-0.932246591384
2014-08-21,-0.929248020602
2014-08-24,-0.947157457618
2014-08-25,-0.981155680107
2014-08-26,-0.931058759229
2014-08-27,-0.961402965263
2014-08-28,-0.979971881068
2014-08-31,-1.00349649948
2014-09-01,-1.0072336919
2014-09-02,-1.0328758964
2014-09-03,-1.05483885198
2014-09-04,-1.06229938495
2014-09-07,-1.04742460089
2014-09-08,-0.961922982217
2014-09-09,-0.944240561756
2014-09-10,-0.941124343962
2014-09-11,-0.815545898947
2014-09-14,-0.732564807031
2014-09-15,-0.586408344876
2014-09-16,-0.603308582601
2014-09-17,-0.581678870642
2014-09-18,-0.605198981687
2014-09-21,-0.577521720064
2014-09-22,-0.541474493674
2014-09-23,-0.59299456086
2014-09-24,-0.504477103982
2014-09-25,-0.413044008298
2014-09-28,-0.280841678759
2014-09-29,-0.28963596856
2014-09-30,-0.234981557495
2014-10-01,-0.172036458052
2014-10-02,-0.228881599723
2014-10-05,0.0701286347386
2014-10-06,0.154145927387
2014-10-07,0.174145370987
2014-10-08,0.131004343328
2014-10-09,0.124941814297
2014-10-12,0.128920169933
2014-10-13,0.011777206185
2014-10-14,0.0814858293865
2014-10-15,0.286637642658
2014-10-16,0.246547429909
2014-10-19,0.230753692974
2014-10-20,0.289255529403
2014-10-21,0.209438339522
2014-10-22,0.154538071246
2014-10-23,0.147164094223
2014-10-27,0.282956402701
2014-10-28,0.281560523174
2014-10-29,0.461704842256
2014-10-30,0.516643808036
2014-10-31,0.547334270505
2014-11-03,0.707016620194
2014-11-04,0.909614375862
2014-11-05,0.79731088212
2014-11-06,0.76693558093
2014-11-07,0.852915508899
2014-11-10,0.760182302258
2014-11-11,0.656704865203
2014-11-12,0.545098305625
2014-11-13,0.458092608906
2014-11-14,0.485205115867
2014-11-17,0.417997872161
2014-11-18,0.303487053195
2014-11-19,0.249629203682
2014-11-20,0.163404151354
2014-11-21,0.18606808638
2014-11-24,0.262912587292
2014-11-25,0.199019273893
2014-11-26,0.194750121836
2014-11-27,0.14644200056
2014-11-28,0.266026453959
2014-12-01,0.255492944467
2014-12-02,0.238321177067
2014-12-03,0.185422707273
2014-12-04,0.176212217393
2014-12-05,0.195744095126
2014-12-08,0.0985866762425
2014-12-09,0.0342363530403
2014-12-10,-0.0329081699462
2014-12-11,0.019298441772
2014-12-12,0.0430173274658
2014-12-15,0.0875834939361
2014-12-16,0.301168541395
2014-12-17,0.320274216572
2014-12-18,0.432246006547
2014-12-19,0.530676822943
2014-12-22,0.418094886946
2014-12-23,0.462106611785
2014-12-24,0.380659360632
2014-12-25,0.259207731337
2014-12-26,0.0884146046022
2014-12-29,0.0720910271738
2014-12-30,0.107189849366
2014-12-31,0.15936683915
2015-01-01,-0.0150112398756
2015-01-02,0.00783254421546
2015-01-05,0.0663674192235
2015-01-06,0.00320987380758
2015-01-07,-0.00665811884897
2015-01-08,-0.0276462971939
2015-01-09,0.00866409844213
2015-01-12,0.0183612772043
2015-01-13,0.0425166357961
2015-01-14,0.129984344318
2015-01-15,0.123994672363
2015-01-16,0.0548732317194
2015-01-19,0.0291204243332
2015-01-20,-0.0088351345504
2015-01-21,0.06493252668
2015-01-22,0.133800601823
2015-01-23,0.0680435959399
2015-01-26,0.0158523007784
2015-01-27,-0.0344587075891
2015-01-28,-0.0549392598838
2015-01-29,-0.103889053925
2015-01-30,0.149609416711
2015-02-02,0.371697681135
2015-02-03,0.348812303407
2015-02-04,0.311302162345
2015-02-05,0.362202873797
2015-02-06,0.318193274841
2015-02-09,0.312063280443
2015-02-10,0.419448109845
2015-02-11,0.603416020726
2015-02-12,0.550676160432
2015-02-13,0.538287157653
2015-02-16,0.399663878847
2015-02-17,0.27574618625
2015-02-18,0.227565152957
2015-02-19,0.207214771799
2015-02-20,0.196447705882
2015-02-23,0.153561317186
2015-02-24,0.0801107779087
2015-02-25,0.0950515344416
2015-02-26,0.100425844921
2015-02-27,0.152346912736
2015-03-02,0.234925862053
2015-03-03,0.332669671599
2015-03-04,0.523575107499
2015-03-05,0.571138508032
2015-03-06,0.715078317276
2015-03-09,0.87460399162
2015-03-10,1.04601552698
2015-03-11,1.01302644376
2015-03-12,0.983502321343
2015-03-13,1.2805366631
2015-03-16,1.33241752748
2015-03-17,1.29670872197
2015-03-18,1.25911615456
2015-03-19,1.29331136152
2015-03-20,1.41744719671
2015-03-23,1.63803296958
2015-03-24,1.84729700668
2015-03-25,1.7511610109
2015-03-26,1.75168828697
2015-03-27,1.69785661238
2015-03-29,1.79753074909
2015-03-30,1.85904456855
2015-03-31,1.89620978488
2015-04-01,1.79768861694
2015-04-02,1.66407796207
2015-04-05,1.5082311242
2015-04-06,1.38014516907
2015-04-07,1.35137415832
2015-04-08,1.47690563947
2015-04-09,1.40685663734
2015-04-12,1.3639830897
2015-04-13,1.29534839769
2015-04-14,1.30256643752
2015-04-15,1.27157658072
2015-04-16,1.24945187143
2015-04-19,1.12913370405
2015-04-20,0.976022043404
2015-04-21,0.880777566605
2015-04-22,0.856265401691
2015-04-23,0.8176142051
2015-04-26,0.852304529534
2015-04-27,0.875278659348
2015-04-28,0.798316115716
2015-04-29,0.865795143733
2015-04-30,1.10730800607
2015-05-03,1.18043112768
2015-05-04,1.20583492339
2015-05-05,1.18581931875
2015-05-06,1.11882463322
2015-05-07,1.10058965844
2015-05-10,1.17899658547
2015-05-11,1.30168991493
2015-05-12,1.31806283612
2015-05-13,1.22425415417
2015-05-14,1.21992138851
2015-05-17,1.09727815048
2015-05-18,1.04104222497
2015-05-19,0.927850276893
2015-05-20,0.885933537791
2015-05-21,0.905027465299
2015-05-24,1.01181489071
2015-05-25,1.03337280275
2015-05-26,1.11140747774
2015-05-27,1.07116081289
2015-05-28,1.02713732352
2015-05-31,0.974063794219
2015-06-01,0.908152265556
2015-06-02,0.937484183388
2015-06-03,0.752239735283
2015-06-04,0.825596661335
2015-06-07,0.745900778121
2015-06-08,0.733978930104
2015-06-09,0.691498374033
2015-06-10,0.733718841825
2015-06-11,0.655412203996
2015-06-14,0.610783372918
2015-06-15,0.548648491453
2015-06-16,0.555250483348
2015-06-17,0.562119969539
2015-06-18,0.534501781512
2015-06-21,0.480032780579
2015-06-22,0.43130208543
2015-06-23,0.362402069608
2015-06-24,0.34867991329
2015-06-25,0.306005772656
2015-06-28,0.284856413528
2015-06-29,0.303279577835
2015-06-30,0.22578646338
2015-07-01,0.242146856115
2015-07-02,0.277293408261
2015-07-05,0.326927990712
2015-07-06,0.38262509272
2015-07-07,0.566266958533
2015-07-08,0.560524511332
2015-07-09,0.564430553233
2015-07-12,0.636790650549
2015-07-13,0.588688006994
2015-07-14,0.531087626528
2015-07-15,0.404803642252
2015-07-16,0.445330350847
2015-07-19,0.503656118579
2015-07-20,0.409633198639
2015-07-21,0.479377544687
2015-07-22,0.72816737263
2015-07-23,0.931102023099
2015-07-26,1.03380978467
2015-07-27,1.01240898477
2015-07-28,0.935628797343
2015-07-29,0.93971755372
2015-07-30,1.02333329164
2015-08-02,1.09912881399
2015-08-03,1.07047564114
2015-08-04,0.996568954268
2015-08-05,1.11344666764
2015-08-06,1.15767730538
2015-08-09,1.16696881065
2015-08-10,1.33227844753
2015-08-11,1.30840461861
2015-08-12,1.31432053866
2015-08-13,1.28249110321
2015-08-16,1.24591408
2015-08-17,1.13767365431
2015-08-18,1.06968355395
2015-08-19,1.03943828824
2015-08-20,1.00617994264
2015-08-23,1.20071206213
2015-08-24,1.15186930296
2015-08-25,1.27650029546
2015-08-26,1.27508724886
2015-08-27,1.22869216037
2015-08-30,1.44058848151
2015-08-31,1.51983799321
2015-09-01,1.72682808403
2015-09-02,1.87284159686
2015-09-03,1.9097603763
2015-09-06,1.99540712759
2015-09-07,1.91086379179
2015-09-08,1.87226878346
2015-09-09,2.05149851841
2015-09-10,2.14365008243
2015-09-13,2.00639125092
2015-09-14,1.99977377273
2015-09-15,1.8739004182
2015-09-16,1.925894403
2015-09-17,1.95569790315
2015-09-20,2.02254303449
2015-09-21,2.02254303449
2015-09-22,2.02254303449
2015-09-23,2.48270642249
2015-09-24,3.31762483438
2015-09-27,3.29255401511
2015-09-28,3.56982549706
2015-09-29,3.72781898319
2015-09-30,3.7352567105
2015-10-01,3.62935312621
2015-10-04,3.62630636335
2015-10-05,3.60561745675
2015-10-06,3.63566382456
2015-10-07,3.51885151638
2015-10-08,3.70089430846
2015-10-11,3.4148246573
2015-10-12,3.40971595185
2015-10-13,3.47932688414
2015-10-14,3.47060161354
2015-10-15,3.29026857418
2015-10-18,3.38763594311
2015-10-19,3.25727133392
2015-10-20,3.17575301891
2015-10-21,2.98129439808
2015-10-22,2.87406339479
2015-10-26,2.78475526858
2015-10-27,2.60339669312
2015-10-28,2.41632406628
2015-10-29,2.32840570205
2015-10-30,2.25868769913
2015-11-02,2.00009682495
2015-11-03,2.03964710924
2015-11-04,2.19219775026
2015-11-05,2.043499556
2015-11-06,2.01689083207
2015-11-09,1.84487514307
2015-11-10,1.73625228624
2015-11-11,1.79797467279
2015-11-12,1.78431104666
2015-11-13,1.72168067348
2015-11-16,1.78246179306
2015-11-17,1.69658158549
2015-11-18,1.61283292397
2015-11-19,1.67055235534
2015-11-20,1.62370714597
2015-11-23,1.6088646555
2015-11-24,1.5059350865
2015-11-25,1.6380733737
2015-11-26,1.60068595092
2015-11-27,1.51255384256
2015-11-30,1.91379751165
2015-12-01,1.85853190825
2015-12-02,1.67153308698
2015-12-03,1.68295746322
2015-12-04,1.80733967443
2015-12-07,1.67823248418
2015-12-08,1.65990316191
2015-12-09,1.73956353114
2015-12-10,1.73573743414
2015-12-11,1.96546167896
2015-12-14,2.06653470754
2015-12-15,2.03376186601
2015-12-16,1.99815598193
2015-12-17,1.89589496498
2015-12-18,1.81650145756
2015-12-21,2.10577481059
2015-12-22,1.99547811683
2015-12-23,1.90232663834
2015-12-24,1.79068890558
2015-12-25,1.59789820964
2015-12-28,1.62491730796
2015-12-29,1.60673197944
2015-12-30,1.87534650284
2015-12-31,1.9269045009
2016-01-01,1.64493281783
2016-01-04,1.76287165376
2016-01-05,1.85241009167
2016-01-06,1.71555712915
2016-01-07,1.60993286372
2016-01-08,1.4782174957
2016-01-11,1.40508742626
2016-01-12,1.35271171934
2016-01-13,1.39612735073
2016-01-14,1.31223443246
2016-01-15,1.24468798684
2016-01-18,1.14352655554
2016-01-19,1.10577930276
2016-01-20,1.06888156964
2016-01-21,1.22460508054
2016-01-22,1.16997889438
2016-01-25,1.15954343827
2016-01-26,1.13617838417
2016-01-27,1.1111564939
2016-01-28,1.18069021526
2016-01-29,1.30993363461
2016-02-01,1.43326895631
2016-02-02,1.38961173929
2016-02-03,1.31322469145
2016-02-04,1.60595592708
2016-02-05,1.53370264903
2016-02-08,1.34761037049
2016-02-09,1.13120411882
2016-02-10,1.14903963796
2016-02-11,1.24875224716
2016-02-12,1.2570819863
2016-02-15,1.13029783385
2016-02-16,1.22100013584
2016-02-17,1.29672319019
2016-02-18,1.37775387191
2016-02-19,1.4064326388
2016-02-22,1.47666957773
2016-02-23,1.50160837442
2016-02-24,1.45122578021
2016-02-25,1.32166387055
2016-02-26,1.26454927396
2016-02-29,1.17234286299
2016-03-01,1.10224385412
2016-03-02,1.30507066007
2016-03-03,1.37478609666
2016-03-04,1.99013815935
2016-03-07,1.90929519755
2016-03-08,1.75736263618
2016-03-09,1.83024623476
2016-03-10,1.95298499269
2016-03-11,1.97752805797
2016-03-14,1.90054268602
2016-03-15,2.25661163026
2016-03-16,2.63602532517
2016-03-17,2.78398336809
2016-03-18,2.91176477707
2016-03-21,2.69968363329
2016-03-22,2.56852888481
2016-03-23,2.57903636191
2016-03-24,2.73586848712
2016-03-25,2.48942102918
2016-03-27,2.30233470721
2016-03-28,2.28086032047
2016-03-29,2.24983379215
2016-03-30,2.3089727316
2016-03-31,2.27261237874
2016-04-03,2.20411298591
2016-04-04,2.32453452655
2016-04-05,2.31366911058
2016-04-06,2.31614395977
2016-04-07,2.23197109035
2016-04-10,2.56251504284
2016-04-11,2.65770571592
2016-04-12,2.57056852077
2016-04-13,2.35736242131
2016-04-14,2.36595464615
2016-04-17,2.50437844544
2016-04-18,2.45664735948
2016-04-19,2.50286131692
2016-04-20,2.2767540402
2016-04-21,2.2179364314
2016-04-24,2.0432218118
2016-04-25,1.88172591362
2016-04-26,1.72770060658
2016-04-27,1.60611005452
2016-04-28,1.68018827334
2016-05-01,1.72717273194
2016-05-02,1.96813175141
2016-05-03,1.92359846821
2016-05-04,1.80242703187
2016-05-05,1.70986548895
2016-05-08,2.1216762592
2016-05-09,1.98487828949
2016-05-10,1.93249724687
2016-05-11,1.91342033643
2016-05-12,1.86503484278
2016-05-15,1.75617629023
2016-05-16,1.659158217
2016-05-17,1.62745618639
2016-05-18,1.81049990933
2016-05-19,1.6164793402
2016-05-22,1.56491477686
2016-05-23,1.3906532159
2016-05-24,1.38736844194
2016-05-25,1.24537400629
2016-05-26,1.24248893954
2016-05-29,1.09827893759
2016-05-30,1.06451300613
2016-05-31,1.05606995257
2016-06-01,0.965085128686
2016-06-02,0.968178459703
2016-06-05,1.02648073408
2016-06-06,1.06066379667
2016-06-07,1.23689246897
2016-06-08,1.34621207942
2016-06-09,1.38416353334
2016-06-12,1.37247352603
2016-06-13,1.4547407382
2016-06-14,1.31458560952
2016-06-15,1.18702829175
2016-06-16,1.13879340778
2016-06-19,1.22407934966
2016-06-20,1.1905659942
2016-06-21,1.07408441984
2016-06-22,1.10338908523
2016-06-23,1.32830049846
2016-06-26,1.32355696966
2016-06-27,1.3793860769
2016-06-28,1.71835421332
2016-06-29,1.83947526081
2016-06-30,1.73355104454
2016-07-03,1.61080369362
2016-07-04,1.56592660486
2016-07-05,1.47769391698
2016-07-06,1.38430805426
2016-07-07,1.42212509125
2016-07-10,1.4731308122
2016-07-11,1.37748415808
2016-07-12,1.22954419521
2016-07-13,1.27398140255
2016-07-14,1.18036513192
2016-07-17,1.06313406653
2016-07-18,0.999729156157
2016-07-19,0.864729457
2016-07-20,0.73678586576
2016-07-21,0.667128935527
2016-07-24,0.633488236915
2016-07-25,0.556428405905
2016-07-26,0.463809491819
2016-07-27,0.405890690377
2016-07-28,0.437101438683
2016-07-31,0.397349788744
2016-08-01,0.323853817476
2016-08-02,0.267432600927
2016-08-03,0.293012844617
2016-08-04,0.386607584618
2016-08-07,0.36413534393
2016-08-08,0.339203404995
2016-08-09,0.361504825475
2016-08-10,0.347107692807
2016-08-11,0.330043601029
2016-08-14,0.332305469073
2016-08-15,0.270476639882
2016-08-16,0.254451803897
2016-08-17,0.247331783103
2016-08-18,0.205984273338
2016-08-21,0.158721375389
2016-08-22,0.0941405746469
2016-08-23,0.0984713559784
2016-08-24,0.0130659131245
2016-08-25,0.0154275576879
2016-08-28,0.0615948895227
2016-08-29,0.101508294202
2016-08-30,0.0402750770433
2016-08-31,0.085776183763
2016-09-01,0.0833137701295
2016-09-04,0.0285536178732
2016-09-05,0.0808044928237
2016-09-06,0.248682183342
2016-09-07,0.249364929769
2016-09-08,0.377857178673
2016-09-11,0.507518321806
2016-09-12,0.571009938545
2016-09-13,0.719393322316
2016-09-14,0.689040572511
2016-09-15,0.683027830608
2016-09-18,0.643447573615
2016-09-19,0.531309833086
2016-09-20,0.481133686732
2016-09-21,0.560921690559
2016-09-22,0.467242763437
2016-09-25,0.38690677456
2016-09-26,0.289767583701
2016-09-27,0.184785603591
2016-09-28,0.0880414014967
2016-09-29,0.0665710254165
2016-10-02,0.0296357493073
2016-10-03,0.0666584936414
2016-10-04,0.0803429321933
2016-10-05,0.0549880559135
2016-10-06,0.065441238866
2016-10-09,0.000502186315181
2016-10-10,-0.0657108836346
2016-10-11,-0.189275920708
2016-10-12,-0.260410040188
2016-10-13,-0.24516598526
2016-10-16,-0.298265719528
2016-10-17,-0.337225703613
2016-10-18,-0.330537053324
2016-10-19,-0.355736432401
2016-10-20,-0.383200714122
2016-10-23,-0.395400088838
2016-10-24,-0.348341933251
2016-10-25,-0.395919619805
2016-10-26,-0.355845473733
2016-10-27,-0.300526670633
2016-10-31,-0.294611716983
2016-11-01,-0.233319841633
2016-11-02,-0.225923322043
2016-11-03,-0.251573991626
2016-11-04,-0.279087796245
2016-11-07,-0.153127974543
2016-11-08,-0.143329728873
2016-11-09,0.00508242178779
2016-11-10,0.638436883729
2016-11-11,1.38877654039
2016-11-14,1.44068616898
2016-11-15,1.3691594136
2016-11-16,1.26726658525
2016-11-17,1.29533663
2016-11-18,1.33507437673
2016-11-21,1.42444733821
2016-11-22,1.37699151878
2016-11-23,1.33846838932
2016-11-24,1.34777988576
2016-11-25,1.35827393817
2016-11-28,1.22316164715
2016-11-29,1.13095816555
2016-11-30,1.15989574426
2016-12-01,1.25623847663
2016-12-02,1.62950060061
2016-12-05,1.82865764805
2016-12-06,1.7434608819
2016-12-07,1.65695894761
2016-12-08,1.53524807483
2016-12-09,1.47063960277
2016-12-12,1.45203366964
2016-12-13,1.39891207225
2016-12-14,1.29637218429
2016-12-15,1.30240849879
2016-12-16,1.26958226047
2016-12-19,1.14080508929
2016-12-20,1.04376777437
2016-12-21,0.944792914504
2016-12-22,0.849192361765
2016-12-23,0.863150474975
2016-12-26,0.694671087205
2016-12-27,0.551529114014
2016-12-28,0.492148549324
2016-12-29,0.44403057241
2016-12-30,0.364613532071
2017-01-02,0.306389505499
2017-01-03,0.271540031715
2017-01-04,0.324172297639
2017-01-05,0.367502127416
2017-01-06,0.263619266238
2017-01-09,0.190067628899
2017-01-10,0.16574405602
2017-01-11,0.111378080004
2017-01-12,0.0845454726025
2017-01-13,0.0548255565785
2017-01-16,0.0445965225871
2017-01-17,0.0738990539497
2017-01-18,0.121432838823
2017-01-19,0.0713405474657
2017-01-20,0.0658443924214
2017-01-23,0.0393079306994
2017-01-24,-0.0259816524004
2017-01-25,-0.149428231105
2017-01-26,-0.161696674577
2017-01-27,-0.187131038397
2017-01-30,-0.129081963514
2017-01-31,-0.179017903878
2017-02-01,-0.206540830183
2017-02-02,-0.204382890274
2017-02-03,-0.244136269576
2017-02-06,-0.330937019015
2017-02-07,-0.396386879468
2017-02-08,-0.488572018516
2017-02-09,-0.576389700208
2017-02-10,-0.622090030857
2017-02-13,-0.675612029337
2017-02-14,-0.707573464466
2017-02-15,-0.633782819759
2017-02-16,-0.60997637661
2017-02-17,-0.552764799338
2017-02-20,-0.605326078916
2017-02-21,-0.660415035107
2017-02-22,-0.692353372107
2017-02-23,-0.651060145481
2017-02-24,-0.595348404155
2017-02-27,-0.531051965473
2017-02-28,-0.577403977742
2017-03-01,-0.662202312637
2017-03-02,-0.605694702228
2017-03-03,-0.476730107285
2017-03-06,-0.390974265754
2017-03-07,-0.426638003966
2017-03-08,-0.430930791684
2017-03-09,-0.322209517221
2017-03-10,-0.307355137373
2017-03-13,-0.231480312547
2017-03-14,-0.275949747983
2017-03-15,-0.293962243133
2017-03-16,-0.158440711788
2017-03-17,-0.204062403271
2017-03-20,-0.209102612726
2017-03-21,-0.225607849526
2017-03-22,-0.256084976295
2017-03-23,-0.184241838404
2017-03-24,-0.110509234349
2017-03-26,-0.099320793543
2017-03-27,-0.168381030078
2017-03-28,-0.225856806278
2017-03-29,-0.223058218935
2017-03-30,-0.181658610619
2017-04-02,-0.16575760408
2017-04-03,-0.229702821576
2017-04-04,-0.229955312003
2017-04-05,-0.273794610906
2017-04-06,-0.334457290208
2017-04-09,-0.396699442142
2017-04-10,-0.440453488342
2017-04-11,-0.508058123289
2017-04-12,-0.570094790596
2017-04-13,-0.6221572788
2017-04-16,-0.578856939969
2017-04-17,-0.475459412657
2017-04-18,-0.445224220842
2017-04-19,-0.420104946161
2017-04-20,-0.520573317034
2017-04-23,-0.391406767307
2017-04-24,-0.333547871814
2017-04-25,-0.246563823082
2017-04-26,-0.24745961912
2017-04-27,-0.213185835378
2017-04-30,-0.316978633001
2017-05-01,-0.364209827278
2017-05-02,-0.362614858455
2017-05-03,-0.333049340497
2017-05-04,-0.372481040799
2017-05-07,-0.406509463074
2017-05-08,-0.472843345534
2017-05-09,-0.450185667097
2017-05-10,-0.437276110849
2017-05-11,-0.400529983432
2017-05-14,-0.377864089136
2017-05-15,-0.191636127568
2017-05-16,-0.27664389857
2017-05-17,0.717542903404
2017-05-18,1.36947945447
2017-05-21,1.61751111183
2017-05-22,1.41879890604
2017-05-23,1.23982341781
2017-05-24,1.0662412416
2017-05-25,0.970465057508
2017-05-28,0.795798472703
2017-05-29,0.90188871986
2017-05-30,0.748010345487
2017-05-31,0.66387896253
2017-06-01,0.53956539256
2017-06-04,0.516144973751
2017-06-05,0.494397441999
2017-06-06,0.398449128096
2017-06-07,0.282008854851
2017-06-08,0.184232655999
2017-06-11,0.187671277233
2017-06-12,0.572960962199
2017-06-13,0.534221505536
2017-06-14,0.490488968906
2017-06-15,0.36969161675
2017-06-18,0.315539260708
2017-06-19,0.273754179256
2017-06-20,0.256756168232
2017-06-21,0.149328222976
2017-06-22,0.0288798783438
2017-06-25,-0.0127538244041
2017-06-26,0.073118785551
2017-06-27,-0.0337563112505
2017-06-28,-0.0701769353118
2017-06-29,-0.11545159596
2017-07-02,-0.130516474515
2017-07-03,0.198051404007
2017-07-04,0.20382876496
2017-07-05,0.138612736005
2017-07-06,0.0488619216387
2017-07-09,0.0338854055624
2017-07-10,0.0338854055624
2017-07-11,0.0338854055624
2017-07-12,0.0658208592728
2017-07-13,-0.0141921313031
2017-07-16,-0.0571137449499
2017-07-17,-0.121356504205
2017-07-18,-0.162040654065
2017-07-19,-0.226796352159
2017-07-20,-0.179797705647
2017-07-23,-0.225128312454
2017-07-24,-0.234102231818
2017-07-25,-0.279913979182
2017-07-26,-0.221663741064
2017-07-27,-0.309499018554
2017-07-30,-0.345093289822
2017-07-31,-0.232576775129
2017-08-01,-0.336749887332
2017-08-02,-0.361435865032
2017-08-03,-0.419973853421
2017-08-06,-0.47630422905
2017-08-07,-0.560825215213
2017-08-08,-0.601138539265
2017-08-09,-0.604901376711
2017-08-10,-0.646737648117
2017-08-13,-0.660031226643
2017-08-14,-0.693514993717
2017-08-15,-0.726385846647
2017-08-16,-0.698358975486
2017-08-17,-0.733413413472
2017-08-20,-0.706082654759
2017-08-21,-0.711942103578
2017-08-22,-0.777390159495
2017-08-23,-0.790437361641
2017-08-24,-0.851192411714
2017-08-27,-0.910116883501
2017-08-28,-0.957260944074
2017-08-29,-1.02448754588
2017-08-30,-1.02338908334
2017-08-31,-0.985831991081
2017-09-03,-1.04340964417
2017-09-04,-0.899818168568
2017-09-05,-0.890570939355
2017-09-06,-0.919564092676
2017-09-07,-0.97137113475
2017-09-10,-0.996391541059
2017-09-11,-0.740611831485
2017-09-12,-0.71570411415
2017-09-13,-0.730828502437
2017-09-14,-0.787910951646
2017-09-17,-0.809348527823
2017-09-18,-0.824421691805
2017-09-19,-0.882534444294
2017-09-20,-0.944624451885
2017-09-21,-0.987057258149
2017-09-24,-0.96382118604
2017-09-25,-0.888536028423
2017-09-26,-0.834952108107
2017-09-27,-0.830393996068
2017-09-28,-0.809129986063
2017-10-01,-0.830856038758
2017-10-02,-0.853245674027
2017-10-03,-0.844420267954
2017-10-04,-0.875456476517
2017-10-05,-0.842841476501
2017-10-08,-0.717469591423
2017-10-09,-0.717247861352
2017-10-10,-0.694475367087
2017-10-11,-0.704775789887
2017-10-12,-0.71877765478
2017-10-15,-0.687394015606
2017-10-16,-0.681925624337
2017-10-17,-0.670561565968
2017-10-18,-0.712521575294
2017-10-19,-0.72152829836
2017-10-22,-0.655938786771
2017-10-23,-0.512956622336
2017-10-24,-0.515519546741
2017-10-25,-0.534536389599
2017-10-26,-0.42279792739
2017-10-30,-0.319417526849
2017-10-31,-0.268158606675
2017-11-01,-0.313720197967
2017-11-02,-0.359721671943
2017-11-03,-0.203563760605
2017-11-06,-0.0585667897691
2017-11-07,-0.0510864841231
2017-11-08,-0.0933010449586
2017-11-09,-0.133238046359
2017-11-10,-0.204695144015
2017-11-13,-0.18529707594
2017-11-14,-0.207571759108
2017-11-15,-0.223819649793
2017-11-16,-0.223819649793
2017-11-17,-0.223819649793
2017-11-20,-0.223819649793
2017-11-21,-0.31807558471
2017-11-22,-0.348245883927
2017-11-23,-0.358699073937
2017-11-24,-0.458382885301
2017-11-27,-0.531013992689
2017-11-28,-0.547726039077
2017-11-29,-0.573393432934
2017-11-30,-0.40113608311
2017-12-01,-0.413711449671
2017-12-04,-0.454185893074
2017-12-05,-0.449440446462
2017-12-06,-0.519162496596
2017-12-07,-0.32026557548
2017-12-08,-0.181957843514
2017-12-11,-0.260625739649
2017-12-12,-0.251852705497
2017-12-13,-0.25553540237
2017-12-14,-0.253464338742
2017-12-15,-0.2834131481
2017-12-18,-0.196438687035
2017-12-19,-0.265148248341
2017-12-20,-0.262007133642
2017-12-21,-0.318541697588
2017-12-22,-0.283172562135
2017-12-25,-0.323740602621
2017-12-26,-0.368081456755
2017-12-27,-0.354005229331
2017-12-28,-0.362592551989
2017-12-29,-0.390587724895
2018-01-01,-0.518845301574
2018-01-02,-0.44900500477
2018-01-03,-0.32485591866
2018-01-04,-0.336246270296
2018-01-05,-0.399749762358
2018-01-08,-0.450697080622
2018-01-09,-0.488531197488
2018-01-10,-0.555783438551
2018-01-11,-0.587443668086
2018-01-12,-0.598106085025
2018-01-15,-0.583347665415
2018-01-16,-0.580857497428
2018-01-17,-0.619188220046
2018-01-18,-0.662931052335
2018-01-19,-0.706850795379
2018-01-22,-0.738654535759
2018-01-23,-0.700453619675
2018-01-24,-0.587679681167
2018-01-25,-0.291658591355
2018-01-26,-0.354704117759
2018-01-29,-0.353412258538
2018-01-30,-0.319174660609
2018-01-31,-0.320061173902
2018-02-01,-0.34685312146
2018-02-02,-0.273803120275
2018-02-05,-0.120355716285
2018-02-06,-0.0568993828962
2018-02-07,-0.105110879987
2018-02-08,-0.0475909713692
2018-02-09,-0.0742216729956
2018-02-12,-0.121905632412
2018-02-13,-0.268010752868
2018-02-14,-0.241083531567
2018-02-15,-0.013203555894
2018-02-16,-0.0707775326663
2018-02-19,-0.180485028959
2018-02-20,-0.236070943504
2018-02-21,-0.278053707171
2018-02-22,-0.3455204687
2018-02-23,-0.354139578331
2018-02-26,-0.41208415634
2018-02-27,-0.431478809111
2018-02-28,-0.456883121428
2018-03-01,-0.471222911388
2018-03-02,-0.531506213233
2018-03-05,-0.614843141784
2018-03-06,-0.616780066051
2018-03-07,-0.612662002545
2018-03-08,-0.526381915242
2018-03-09,-0.552018807586
2018-03-12,-0.575822472542
2018-03-13,-0.608276150269
2018-03-14,-0.632124571046
