Date,atr
2010-01-04,
2010-01-05,1.0001674601108392
2010-01-06,0.7717265865973983
2010-01-07,0.8721531153556442
2010-01-08,0.7360596215273196
2010-01-11,0.6869843034611611
2010-01-12,0.6760759373001922
2010-01-13,0.6134437001386537
2010-01-14,0.6429221183776581
2010-01-15,0.6664440989251208
2010-01-18,0.6164964865481856
2010-01-19,0.6849186666655569
2010-01-20,0.7432576844891097
2010-01-21,0.7609583771101224
2010-01-22,0.8556558543252579
2010-01-25,0.8164147859401268
2010-01-26,0.8182551331088751
2010-01-27,0.9118559400894747
2010-01-28,0.9158962765585813
2010-01-29,0.8611303898767211
2010-02-01,0.9242789304191951
2010-02-02,0.8804766768470114
2010-02-03,0.9122863637551832
2010-02-04,1.088749140368692
2010-02-05,1.069554603473709
2010-02-08,1.0114266952017616
2010-02-09,0.9584871332356332
2010-02-10,0.9448054924566832
2010-02-11,0.9264652299282679
2010-02-12,0.935777079067945
2010-02-15,0.8645439397551448
2010-02-16,0.8193366280318877
2010-02-17,0.8282745330463209
2010-02-18,0.8011820666229104
2010-02-19,0.7715450431843167
2010-02-22,0.7179717333701748
2010-02-23,0.7173531962945359
2010-02-24,0.6696940793543414
2010-02-25,0.6928327998976779
2010-02-26,0.6996126582437758
2010-03-01,0.6800895426874275
2010-03-02,0.7033250229689377
2010-03-03,0.6952934034485603
2010-03-04,0.6654886441324457
2010-03-05,0.6310593453165312
2010-03-08,0.6365158997091143
2010-03-09,0.641555010226323
2010-03-10,0.6309323703621685
2010-03-11,0.6123496676599209
2010-03-12,0.5993525170813412
2010-03-15,0.5778434502851526
2010-03-16,0.5590819294311965
2010-03-17,0.5288605765094083
2010-03-18,0.601344911658724
2010-03-19,0.6043416850097179
2010-03-22,0.6071167255353617
2010-03-23,0.622099966136574
2010-03-24,0.6528874459780782
2010-03-25,0.662646696062619
2010-03-26,0.6371945163386151
2010-03-28,0.6072367110635509
2010-03-29,0.6277517829221552
2010-03-30,0.6134842716589207
2010-03-31,0.5838118332039521
2010-04-01,0.5462136816523911
2010-04-04,0.5098536406929371
2010-04-05,0.5085847373562516
2010-04-06,0.5696692730508031
2010-04-07,0.6349021748333037
2010-04-08,0.5944796063070515
2010-04-11,0.5886237046730798
2010-04-12,0.5999374749470096
2010-04-13,0.5635612332648863
2010-04-14,0.5576989447847753
2010-04-15,0.5745649866514395
2010-04-18,0.5686606096415362
2010-04-19,0.5613233579559748
2010-04-20,0.5351980439155243
2010-04-21,0.5644279444966916
2010-04-22,0.5358645166517726
2010-04-25,0.5371934321818754
2010-04-26,0.5814791470418336
2010-04-27,0.5446609283262519
2010-04-28,0.5412783359163503
2010-04-29,0.5233000925653959
2010-05-02,0.491774761837792
2010-05-03,0.5874874324281671
2010-05-04,0.6544631628616968
2010-05-05,0.7963553634293623
2010-05-06,0.7986992368631942
2010-05-09,0.8460997490330975
2010-05-10,0.8604534968790112
2010-05-11,0.8018778588996319
2010-05-12,0.7482362290038427
2010-05-13,0.8592618432806766
2010-05-16,0.8811928533217162
2010-05-17,0.8900684806988832
2010-05-18,0.9668520321673184
2010-05-19,1.1566973290681206
2010-05-20,1.1506958282038375
2010-05-23,1.0891861520718233
2010-05-24,1.1709865130383492
2010-05-25,1.1913753453916116
2010-05-26,1.136226040857684
2010-05-27,1.1098357029395411
2010-05-30,1.1627408003065525
2010-05-31,0.9911258594838614
2010-06-01,0.923626487947367
2010-06-02,0.9209479142787127
2010-06-03,0.7899537673894983
2010-06-06,0.7809019727221616
2010-06-07,0.7284288470491843
2010-06-08,0.7126637115633206
2010-06-09,0.6654381149358264
2010-06-10,0.6715779988309099
2010-06-13,0.6458039802555838
2010-06-14,0.604468005980163
2010-06-15,0.6142228109450036
2010-06-16,0.5892147350061999
2010-06-17,0.5774720883842048
2010-06-20,0.553238607706049
2010-06-21,0.5314770875732233
2010-06-22,0.5671805335762745
2010-06-23,0.5907063122934086
2010-06-24,0.5977409172514712
2010-06-27,0.5920544568312719
2010-06-28,0.6637872666801806
2010-06-29,0.6233924397414985
2010-06-30,0.47406778764548924
2010-07-01,0.4861018450769274
2010-07-04,0.47765314341839876
2010-07-05,0.4557386938679097
2010-07-06,0.4461267985206757
2010-07-07,0.4501600016974667
2010-07-08,0.4479812446395656
2010-07-11,0.44299621540497236
2010-07-12,0.4213363500416386
2010-07-13,0.45675925279680374
2010-07-14,0.4807661012453139
2010-07-15,0.5482266938585661
2010-07-18,0.5394132264431306
2010-07-19,0.5290079321149999
2010-07-20,0.5149031274579149
2010-07-21,0.4866263674723203
2010-07-22,0.48887725202672844
2010-07-25,0.45801685715019047
2010-07-26,0.4600899335836072
2010-07-27,0.4416523225283724
2010-07-28,0.4219401300413395
2010-07-29,0.43029243088028035
2010-08-01,0.42953288076737534
2010-08-02,0.44474736467360143
2010-08-03,0.42703554442482616
2010-08-04,0.4224361402510751
2010-08-05,0.42594002682430343
2010-08-08,0.4106823252232606
2010-08-09,0.44464383932351287
2010-08-10,0.4935800886985928
2010-08-11,0.4816359032510878
2010-08-12,0.4705448874304291
2010-08-15,0.44173485229972226
2010-08-16,0.4220169750130399
2010-08-17,0.4125929249982176
2010-08-18,0.42531504481857957
2010-08-19,0.42972394675747866
2010-08-22,0.4245623210463001
2010-08-23,0.464566488663443
2010-08-24,0.4472902824280314
2010-08-25,0.4234734021241509
2010-08-26,0.4161666864344409
2010-08-29,0.4256717190660352
2010-08-30,0.465966810910583
2010-08-31,0.45414395466579227
2010-09-01,0.4542722920518058
2010-09-02,0.4884519999327271
2010-09-05,0.4927937739058934
2010-09-06,0.48571872660358356
2010-09-07,0.4587867742733841
2010-09-08,0.45525147400411514
2010-09-09,0.43530866352990066
2010-09-12,0.4227139106802896
2010-09-13,0.41694235154566006
2010-09-14,0.43268574844254937
2010-09-15,0.4062098852689728
2010-09-16,0.42716255777229634
2010-09-19,0.40367277236524324
2010-09-20,0.4477604704869736
2010-09-21,0.4842563691418741
2010-09-22,0.4844551534334904
2010-09-23,0.4565028204705137
2010-09-26,0.463496896236974
2010-09-27,0.44925893062918687
2010-09-28,0.44122107964699125
2010-09-29,0.4544898233702624
2010-09-30,0.4942072646855938
2010-10-03,0.4970272727769448
2010-10-04,0.5270423154841526
2010-10-05,0.6282174742074526
2010-10-06,0.6033244195292682
2010-10-07,0.5939076722819373
2010-10-10,0.6073768967118638
2010-10-11,0.5713848947113829
2010-10-12,0.5860926663758077
2010-10-13,0.620852559789317
2010-10-14,0.5972260191682158
2010-10-17,0.6019431020939774
2010-10-18,0.7222028586792325
2010-10-19,0.674677003392483
2010-10-20,0.7112543320666006
2010-10-21,0.6811705227740162
2010-10-24,0.6491631117262421
2010-10-25,0.6616472945803039
2010-10-26,0.6713886380111386
2010-10-27,0.6282328188458197
2010-10-28,0.6503569141544597
2010-11-01,0.6627558248780003
2010-11-02,0.6490939794304723
2010-11-03,0.6171564184908354
2010-11-04,0.6274841250453225
2010-11-05,0.6663217027705426
2010-11-08,0.7034958343268555
2010-11-09,0.6632297591683269
2010-11-10,0.6776709589369267
2010-11-11,0.6847868647071178
2010-11-12,0.6669598178548338
2010-11-15,0.6367079056097094
2010-11-16,0.6397155196710935
2010-11-17,0.600673181712773
2010-11-18,0.6125484841772085
2010-11-19,0.6387546657878488
2010-11-22,0.617551631933341
2010-11-23,0.6263702190694933
2010-11-24,0.5860597835987454
2010-11-25,0.6015704562886868
2010-11-26,0.6222670030722212
2010-11-29,0.606314105159189
2010-11-30,0.618156706579659
2010-12-01,0.5987951782128424
2010-12-02,0.6034001772597288
2010-12-03,0.6102678039701332
2010-12-06,0.6421902253551449
2010-12-07,0.6200013502312571
2010-12-08,0.6190191772445188
2010-12-09,0.6336564964767554
2010-12-10,0.6298478443435425
2010-12-13,0.5978041210183174
2010-12-14,0.610995022915894
2010-12-15,0.589183265161363
2010-12-16,0.5552312647459873
2010-12-17,0.5607266380260242
2010-12-20,0.5243645862135428
2010-12-21,0.49171049078259066
2010-12-22,0.516181732195901
2010-12-23,0.4929974617396899
2010-12-24,0.48553765827132545
2010-12-27,0.4689849179506146
2010-12-28,0.4676829638719939
2010-12-29,0.43833711125869457
2010-12-30,0.46921229301553197
2010-12-31,0.47233676553092935
2011-01-03,0.4607993915177013
2011-01-04,0.5104323514493982
2011-01-05,0.5117232009790526
2011-01-06,0.5510547444144319
2011-01-07,0.5257497669043367
2011-01-10,0.5418660744455513
2011-01-11,0.5294347665835751
2011-01-12,0.5256660776919864
2011-01-13,0.4973616864377545
2011-01-14,0.529574161587977
2011-01-17,0.49802884305454065
2011-01-18,0.4654047608256428
2011-01-19,0.47472475679223913
2011-01-20,0.45857414434950305
2011-01-21,0.43913447942997824
2011-01-24,0.41886202818155993
2011-01-25,0.4122549452175463
2011-01-26,0.3916811268780795
2011-01-27,0.3947902052607559
2011-01-28,0.4232225456193164
2011-01-31,0.4011248826466266
2011-02-01,0.3783842903488614
2011-02-02,0.3820729204649118
2011-02-03,0.3803149647405905
2011-02-04,0.38941902410663937
2011-02-07,0.39120879204034387
2011-02-08,0.3832449394968346
2011-02-09,0.3777010450854006
2011-02-10,0.4092051512494137
2011-02-11,0.4125434028197781
2011-02-14,0.4086089840696543
2011-02-15,0.3960702599303574
2011-02-16,0.37924404668635053
2011-02-17,0.372134818813313
2011-02-18,0.4003342895208311
2011-02-21,0.4220768446697466
2011-02-22,0.4222743557415402
2011-02-23,0.43282398339486355
2011-02-24,0.4081893919333322
2011-02-25,0.2727668337016279
2011-02-28,0.11406753028358267
2011-03-01,-0.04921566767561302
2011-03-02,-0.19898466854125707
2011-03-03,-0.32954077063303416
2011-03-04,-0.42485587557273263
2011-03-07,-0.5559383236969032
2011-03-08,-0.6358226194500067
2011-03-09,-0.7151840063331986
2011-03-10,-0.7970216134125848
2011-03-11,-0.8804181232088879
2011-03-14,-0.9619301847915852
2011-03-15,-0.9868995006052529
2011-03-16,-1.048218191177308
2011-03-17,-1.1051569752791623
2011-03-18,-1.1491433680760623
2011-03-21,-1.1492634222282747
2011-03-22,-1.2211980280673476
2011-03-23,-1.2720748887008146
2011-03-24,-1.3252412447245816
2011-03-25,-1.3649842239842134
2011-03-27,-1.39670530675427
2011-03-28,-1.426901042505736
2011-03-29,-1.3590523632454286
2011-03-30,-1.29493935130632
2011-03-31,-1.2513253992935294
2011-04-03,-1.2400742915856628
2011-04-04,-1.2914539592006362
2011-04-05,-1.3354614275169263
2011-04-06,-1.328196605715938
2011-04-07,-1.2244524561038992
2011-04-10,-1.2014226190894925
2011-04-11,-1.220762223875711
2011-04-12,-1.2383502060159761
2011-04-13,-1.2724525743105846
2011-04-14,-1.2724525743105846
2011-04-17,-1.2724525743105846
2011-04-18,-1.2934809045797426
2011-04-19,-1.2579705976160989
2011-04-20,-1.2672615811858832
2011-04-21,-1.3149158729314006
2011-04-24,-1.3584233043769822
2011-04-25,-1.4185020095243903
2011-04-26,-1.4109829307919475
2011-04-27,-1.368026667097592
2011-04-28,-1.3832030166834492
2011-05-01,-1.3804951927203646
2011-05-02,-1.3389753227841592
2011-05-03,-1.3055000296111068
2011-05-04,-1.2563254895592033
2011-05-05,-1.2639717978022211
2011-05-08,-1.246586730776659
2011-05-09,-1.2835057137644628
2011-05-10,-1.2963745013218348
2011-05-11,-1.29980060342659
2011-05-12,-1.2742292874731622
2011-05-15,-1.2853854998983876
2011-05-16,-1.326962013385683
2011-05-17,-1.323163588893296
2011-05-18,-1.3435743179971862
2011-05-19,-1.3802699041264106
2011-05-22,-1.375627754781843
2011-05-23,-1.3728424864185251
2011-05-24,-1.378940734452127
2011-05-25,-1.4113358852930298
2011-05-26,-1.3623229591049613
2011-05-29,-1.3146660707333646
2011-05-30,-1.3264502656717478
2011-05-31,-1.3201178943872
2011-06-01,-1.3449742817607515
2011-06-02,-1.2302445631285266
2011-06-05,-1.2660348260623193
2011-06-06,-1.2562308751124243
2011-06-07,-1.302050358314251
2011-06-08,-1.3325949419056426
2011-06-09,-1.3422689202151126
2011-06-12,-1.368393762408992
2011-06-13,-1.3747380616239862
2011-06-14,-1.3888185070936832
2011-06-15,-1.3397002727808867
2011-06-16,-1.37898829351992
2011-06-19,-1.3920022717950966
2011-06-20,-1.4104004300995263
2011-06-21,-1.436395925043537
2011-06-22,-1.4928557670723932
2011-06-23,-1.5251868929606773
2011-06-26,-1.544419410318605
2011-06-27,-1.5474135530481623
2011-06-28,-1.494496503831054
2011-06-29,-1.472851550149078
2011-06-30,-1.4620396981283867
2011-07-03,-1.492823794613938
2011-07-04,-1.501734604304104
2011-07-05,-1.4985061762279859
2011-07-06,-1.5062658359374914
2011-07-07,-1.4927006710828148
2011-07-10,-1.4233720910267416
2011-07-11,-1.4187062767085339
2011-07-12,-1.4306871890487278
2011-07-13,-1.4636814089104464
2011-07-14,-1.4954250182239022
2011-07-17,-1.512665004138408
2011-07-18,-1.546830600013533
2011-07-19,-1.5592808417266262
2011-07-20,-1.567505153953524
2011-07-21,-1.5766231208101096
2011-07-24,-1.5698979596980391
2011-07-25,-1.5232707962012988
2011-07-26,-1.4544164383079494
2011-07-27,-1.3964137540008816
2011-07-28,-1.3777502942103053
2011-07-31,-1.3767198493043276
2011-08-01,-1.3539091875597105
2011-08-02,-1.3971776090973675
2011-08-03,-1.339942802862775
2011-08-04,-1.2967995031492512
2011-08-07,-1.2597030806707656
2011-08-08,-1.1126723586254192
2011-08-09,-1.0516999690418543
2011-08-10,-1.0791505526196765
2011-08-11,-1.0968624809592358
2011-08-14,-1.0670190991228627
2011-08-15,-1.0174601763245341
2011-08-16,-1.0632779602494278
2011-08-17,-1.0661998493510856
2011-08-18,-1.0840949225337588
2011-08-21,-1.0921947106237049
2011-08-22,-1.1363737048258167
2011-08-23,-1.1870232994760677
2011-08-24,-1.2062834553851782
2011-08-25,-1.2423107650011604
2011-08-28,-1.2624344390956996
2011-08-29,-1.277417735486
2011-08-30,-1.2828145661570236
2011-08-31,-1.2715344763331367
2011-09-01,-1.147391813207748
2011-09-04,-1.033969283115931
2011-09-05,-1.009364369399903
2011-09-06,-1.0842629204641008
2011-09-07,-1.1327067550786998
2011-09-08,-1.1277067641990928
2011-09-11,-1.0456830467494076
2011-09-12,-0.9898821301669033
2011-09-13,-0.9795343580002567
2011-09-14,-1.0195378561183437
2011-09-15,-1.0289158477860294
2011-09-18,-0.821035281214333
2011-09-19,-0.6143057332164219
2011-09-20,-0.469733708504631
2011-09-21,-0.002648507705322032
2011-09-22,0.13525506702705203
2011-09-25,0.20036830900188846
2011-09-26,0.25083410266764083
2011-09-27,0.24364128607503696
2011-09-28,0.1817979316902909
2011-09-29,0.1617653613608016
2011-10-02,0.21276685526373793
2011-10-03,0.21902985460632543
2011-10-04,0.25261260750488745
2011-10-05,0.2538080559353081
2011-10-06,0.3696886414388251
2011-10-09,0.4410095579783133
2011-10-10,0.3461873393377291
2011-10-11,0.25184444469700185
2011-10-12,0.18645404518320116
2011-10-13,0.18867288560585632
2011-10-16,0.08077621860013356
2011-10-17,0.09868849433836721
2011-10-18,0.01721162773005666
2011-10-19,-0.003281853834409544
2011-10-20,-0.07007049231728335
2011-10-23,-0.08692104980151132
2011-10-24,-0.1277432437928058
2011-10-25,-0.19600792616673857
2011-10-26,-0.17905786890186806
2011-10-27,-0.05928559271138808
2011-10-31,-0.06431885855983485
2011-11-01,0.02837625210260094
2011-11-02,0.03929482624547584
2011-11-03,-0.020168536001038087
2011-11-04,-0.0661288998676219
2011-11-07,-0.1339815517400248
2011-11-08,-0.22512453051442435
2011-11-09,-0.2671815880423698
2011-11-10,-0.26810156730824114
2011-11-11,-0.3407791188834001
2011-11-14,-0.38568178788549595
2011-11-15,-0.42034287356149014
2011-11-16,-0.4810353260796214
2011-11-17,-0.5310987991611251
2011-11-18,-0.5883227617359607
2011-11-21,-0.5466822425557043
2011-11-22,-0.547629892831909
2011-11-23,-0.48261020316508885
2011-11-24,-0.3470795751606326
2011-11-25,-0.3045298334175235
2011-11-28,-0.2931562876776715
2011-11-29,-0.2522368831424113
2011-11-30,-0.17610736891449194
2011-12-01,-0.1117094700468479
2011-12-02,-0.11188748481337986
2011-12-05,-0.18017373407099146
2011-12-06,-0.26542551736279046
2011-12-07,-0.34051543250202554
2011-12-08,-0.3576701807249386
2011-12-09,-0.3932213804584377
2011-12-12,-0.382546954128708
2011-12-13,-0.3385745208218873
2011-12-14,-0.2359158286512654
2011-12-15,-0.28238510114017684
2011-12-16,-0.2892533391513658
2011-12-19,-0.350423906999875
2011-12-20,-0.3835309113427659
2011-12-21,-0.426860690123595
2011-12-22,-0.49819416458766635
2011-12-23,-0.5214865908271935
2011-12-26,-0.6319686442355688
2011-12-27,-0.6760639829466439
2011-12-28,-0.6962772003672878
2011-12-29,-0.7280043989522683
2011-12-30,-0.7337711369277308
2012-01-02,-0.7957699861024048
2012-01-03,-0.7615252002957098
2012-01-04,-0.6678993383572788
2012-01-05,-0.6964704126985918
2012-01-06,-0.6874593503026583
2012-01-09,-0.7338848421468301
2012-01-10,-0.6444546289109637
2012-01-11,-0.6006558570596632
2012-01-12,-0.6503198192850316
2012-01-13,-0.6334985584306944
2012-01-16,-0.7344988506638834
2012-01-17,-0.7560914811201364
2012-01-18,-0.8057595668123404
2012-01-19,-0.8344794823624067
2012-01-20,-0.9111279888950133
2012-01-23,-0.93602381119843
2012-01-24,-0.9946827031550552
2012-01-25,-1.026197890033952
2012-01-26,-1.017699315414939
2012-01-27,-1.0168420059270296
2012-01-30,-0.6776627352005582
2012-01-31,-0.7325626505167573
2012-02-01,-0.7757664744487823
2012-02-02,-0.8032967520917337
2012-02-03,-0.8199752456999956
2012-02-06,-0.8561948677992993
2012-02-07,-0.9146322688364242
2012-02-08,-0.9681551249966677
2012-02-09,-1.0037864720270766
2012-02-10,-1.042426057406001
2012-02-13,-1.0749736715143738
2012-02-14,-1.1322226845781598
2012-02-15,-1.175386479950535
2012-02-16,-1.1914026969168703
2012-02-17,-1.1951682290990824
2012-02-20,-1.2612323647845793
2012-02-21,-1.2822234019650869
2012-02-22,-1.3280008631605311
2012-02-23,-1.3227498279817238
2012-02-24,-1.353044985931332
2012-02-27,-1.371920646318456
2012-02-28,-1.3838947106278874
2012-02-29,-1.3250414686823249
2012-03-01,-1.3014907035218843
2012-03-02,-1.3107208096131686
2012-03-05,-1.2852311702497914
2012-03-06,-1.254527995619645
2012-03-07,-1.121244992384664
2012-03-08,-1.115953341554311
2012-03-09,-1.1276996695345956
2012-03-12,-1.0108802787157134
2012-03-13,-0.9905180388219521
2012-03-14,-0.969018688508188
2012-03-15,-0.9975541280555238
2012-03-16,-1.0129446527575723
2012-03-19,-1.0612963063184342
2012-03-20,-1.034741365474909
2012-03-21,-1.0208196529694813
2012-03-22,-1.0608341380885278
2012-03-23,-1.0839219981079107
2012-03-25,-1.066117160966793
2012-03-26,-1.097342775208877
2012-03-27,-1.1181930977256078
2012-03-28,-1.1105278832548995
2012-03-29,-1.1148870755447697
2012-04-01,-1.1618806842747358
2012-04-02,-1.1825638237835991
2012-04-03,-1.141793582867187
2012-04-04,-1.1479919562435155
2012-04-05,-1.2148342688820057
2012-04-08,-1.266906128392359
2012-04-09,-1.2086345457196097
2012-04-10,-1.2137607876442464
2012-04-11,-1.2196315363436878
2012-04-12,-1.1947247169013613
2012-04-15,-1.164192509908173
2012-04-16,-1.174714516788266
2012-04-17,-1.157828945845026
2012-04-18,-1.1362259302461872
2012-04-19,-1.1324557685752685
2012-04-22,-1.0860091168837314
2012-04-23,-1.0732383121133544
2012-04-24,-1.106917051094032
2012-04-25,-1.1067212700087683
2012-04-26,-1.123199476972396
2012-04-29,-1.1170277755134024
2012-04-30,-1.127956913558102
2012-05-01,-1.1269987297618334
2012-05-02,-1.1124107624137491
2012-05-03,-1.0699874530147546
2012-05-06,-1.0779828349255427
2012-05-07,-1.03061421712434
2012-05-08,-0.9299850595008667
2012-05-09,-0.9028134912815207
2012-05-10,-0.8764720824519382
2012-05-13,-0.8312797537974639
2012-05-14,-0.8196736775520214
2012-05-15,-0.848880615590948
2012-05-16,-0.8745204545532735
2012-05-17,-0.8676004252103093
2012-05-20,-0.8252631201850286
2012-05-21,-0.7989076890179624
2012-05-22,-0.6567040959632033
2012-05-23,-0.5013338972593472
2012-05-24,-0.45998337041586995
2012-05-27,-0.3645722178113285
2012-05-28,-0.3777872811462447
2012-05-29,-0.41856552879630393
2012-05-30,-0.43310703931701144
2012-05-31,-0.43920542443409
2012-06-03,-0.49818022239447496
2012-06-04,-0.47482562863587763
2012-06-05,-0.4364792164646467
2012-06-06,-0.5374838639201837
2012-06-07,-0.5694467689275717
2012-06-10,-0.5672874911453084
2012-06-11,-0.5438095538569742
2012-06-12,-0.6008659628462499
2012-06-13,-0.647182912577967
2012-06-14,-0.637619941586173
2012-06-17,-0.6335529299032395
2012-06-18,-0.6479173119518232
2012-06-19,-0.5779556483066628
2012-06-20,-0.5685245919535581
2012-06-21,-0.551992514098439
2012-06-24,-0.5773657523893547
2012-06-25,-0.5801941674915546
2012-06-26,-0.6183618941293226
2012-06-27,-0.6208535695210384
2012-06-28,-0.48470412639655763
2012-07-01,-0.2672049567072509
2012-07-02,-0.2973708266146017
2012-07-03,-0.27836375891842546
2012-07-04,-0.32254146368558867
2012-07-05,-0.3250604984945118
2012-07-08,-0.358128053478975
2012-07-09,-0.4203025360915707
2012-07-10,-0.48358931879201594
2012-07-11,-0.4957076067078617
2012-07-12,-0.5513869791115454
2012-07-15,-0.6489968191842334
2012-07-16,-0.7296385256146867
2012-07-17,-0.7834174388283531
2012-07-18,-0.8174354420255187
2012-07-19,-0.8134822466660298
2012-07-22,-0.7813043049945237
2012-07-23,-0.8265799154430873
2012-07-24,-0.8860220020054117
2012-07-25,-0.8897573249838368
2012-07-26,-0.9213627342831731
2012-07-29,-0.8992497140888547
2012-07-30,-0.8950059767136193
2012-07-31,-0.919202258541687
2012-08-01,-0.9039075595154518
2012-08-02,-0.9019226750235576
2012-08-05,-0.8619466706819326
2012-08-06,-0.8973896668085896
2012-08-07,-0.9136410166741388
2012-08-08,-0.9624217855002635
2012-08-09,-1.0295613296327573
2012-08-12,-1.011937174374514
2012-08-13,-1.0207470040219406
2012-08-14,-1.0370724508114226
2012-08-15,-1.0459380150905635
2012-08-16,-1.0482467679141172
2012-08-19,-1.0548332774698674
2012-08-20,-1.0650217674014981
2012-08-21,-1.071520729620188
2012-08-22,-1.1171692667812827
2012-08-23,-1.121424296831755
2012-08-26,-1.127596729988417
2012-08-27,-1.1014891569172927
2012-08-28,-1.0998299710389352
2012-08-29,-1.1105066344700494
2012-08-30,-1.0978371185398301
2012-09-02,-1.0620081182723204
2012-09-03,-1.057615672022688
2012-09-04,-1.0898187577270655
2012-09-05,-1.11268739924773
2012-09-06,-1.1002323367088334
2012-09-09,-1.066083360949323
2012-09-10,-1.0799109411377208
2012-09-11,-1.0934912816349744
2012-09-12,-1.1194296007554791
2012-09-13,-1.1253742898992876
2012-09-16,-1.0794334581320988
2012-09-17,-1.093047904558324
2012-09-18,-1.091621442973022
2012-09-19,-1.110659098221695
2012-09-20,-1.1753551535623112
2012-09-23,-1.1780456049708006
2012-09-24,-1.2020167749114627
2012-09-25,-1.203543269403039
2012-09-26,-1.2223611768624196
2012-09-27,-1.265010064747614
2012-09-30,-1.2742543745690498
2012-10-01,-1.2928343787544607
2012-10-02,-1.3060147944396243
2012-10-03,-1.3115897503893181
2012-10-04,-1.301217158431185
2012-10-07,-1.3115774703153562
2012-10-08,-1.2530768559836225
2012-10-09,-1.2631735378596303
2012-10-10,-1.2814343634693885
2012-10-11,-1.2980206220887196
2012-10-14,-1.3112008141254483
2012-10-15,-1.3012262256330347
2012-10-16,-1.3030707768676244
2012-10-17,-1.3110773536108282
2012-10-18,-1.309996919022924
2012-10-21,-1.3212109943665968
2012-10-22,-1.3120022822158688
2012-10-23,-1.3223326727234475
2012-10-24,-1.3267420659385836
2012-10-25,-1.3208405002871328
2012-10-29,-1.2787084669420317
2012-10-30,-1.3306605513374454
2012-10-31,-1.3181853147035645
2012-11-01,-1.3739816257311106
2012-11-02,-1.425052041362948
2012-11-05,-1.3962087755371806
2012-11-06,-1.3890475250973937
2012-11-07,-1.377584902593989
2012-11-08,-1.4169210498826346
2012-11-09,-1.3812541230823372
2012-11-12,-1.3629437260711694
2012-11-13,-1.3677843304975894
2012-11-14,-1.3422911708398941
2012-11-15,-1.3360193994463767
2012-11-16,-1.3190889426034245
2012-11-19,-1.2522771261525496
2012-11-20,-1.2616904869798928
2012-11-21,-1.2574736842505294
2012-11-22,-1.2391194118595978
2012-11-23,-1.2102290451967326
2012-11-26,-1.1208347067743814
2012-11-27,-1.1540754816995435
2012-11-28,-1.1538432420214986
2012-11-29,-1.1147542489704787
2012-11-30,-1.1365822285817768
2012-12-03,-1.0446737086762146
2012-12-04,-0.9548874154014592
2012-12-05,-0.9492611126319964
2012-12-06,-0.8533322241485016
2012-12-07,-0.8597727535635671
2012-12-10,-0.8809323596278205
2012-12-11,-0.8976187868268061
2012-12-12,-0.9238497731851074
2012-12-13,-0.9378408931482994
2012-12-14,-0.976748208680772
2012-12-17,-0.9806670897974745
2012-12-18,-0.9802336054902652
2012-12-19,-0.9502133000267856
2012-12-20,-0.8901279616472471
2012-12-21,-0.9057873378265452
2012-12-24,-0.9021872942392375
2012-12-25,-0.9021763973585707
2012-12-26,-0.8470031555285295
2012-12-27,-0.7568975176220862
2012-12-28,-0.7794817979608017
2012-12-31,-0.8230364759629982
2013-01-01,-0.8971703352016831
2013-01-02,-0.9467573589717664
2013-01-03,-0.9757722264879408
2013-01-04,-0.9982719358190857
2013-01-07,-0.9728867350534752
2013-01-08,-0.9596809874263551
2013-01-09,-0.9840705155842131
2013-01-10,-0.9689552595785725
2013-01-11,-0.9519578862840853
2013-01-14,-0.9702350630512905
2013-01-15,-1.0042369531768838
2013-01-16,-1.0042369531768838
2013-01-17,-1.0042369531768838
2013-01-18,-1.0391676452092182
2013-01-21,-1.072585305849468
2013-01-22,-1.102169178927363
2013-01-23,-1.092017251407245
2013-01-24,-1.0966591951336988
2013-01-25,-1.1630335079525198
2013-01-28,-1.1334497517605626
2013-01-29,-1.0133701978199645
2013-01-30,-1.0546113799763885
2013-01-31,-1.0568155409122255
2013-02-01,-1.0805252227299398
2013-02-04,-1.0929117744596606
2013-02-05,-1.0921979584460098
2013-02-06,-1.0876483559578294
2013-02-07,-1.070270593222911
2013-02-08,-0.9858388812213129
2013-02-11,-1.0027261856278398
2013-02-12,-1.0252278580433454
2013-02-13,-1.0529022506989443
2013-02-14,-1.0738811147699865
2013-02-15,-1.1108082107676354
2013-02-18,-1.1342920939862897
2013-02-19,-1.1465156368329608
2013-02-20,-1.147588796137071
2013-02-21,-1.1531225424634144
2013-02-22,-1.1967798727662622
2013-02-25,-1.2322916618398339
2013-02-26,-1.2651741734451334
2013-02-27,-1.2862216805350513
2013-02-28,-1.2997052916016218
2013-03-01,-1.340354279587337
2013-03-04,-1.3405167255852433
2013-03-05,-1.294954332342793
2013-03-06,-1.3290942941123536
2013-03-07,-1.3536356040139181
2013-03-08,-1.332280917041456
2013-03-11,-1.2945501028789834
2013-03-12,-1.3032369052341783
2013-03-13,-1.3422587515150104
2013-03-14,-1.376587520611868
2013-03-15,-1.3976226233070106
2013-03-18,-1.3392823926210096
2013-03-19,-1.3298397981727768
2013-03-20,-1.3456435927384192
2013-03-21,-1.370724324211079
2013-03-22,-1.3382090140408154
2013-03-25,-1.3084085163991308
2013-03-26,-1.3227541865640535
2013-03-27,-1.334209484676521
2013-03-28,-1.3385255994329115
2013-03-29,-1.3815274034656426
2013-03-31,-1.439261689961474
2013-04-01,-1.433080913276511
2013-04-02,-1.4266016216217667
2013-04-03,-1.4276381019973063
2013-04-04,-1.362928257132619
2013-04-07,-1.2783758982488895
2013-04-08,-1.2989213107120083
2013-04-09,-1.2849867123087073
2013-04-10,-1.272792427157742
2013-04-11,-1.2822354549725985
2013-04-14,-1.2580063109555604
2013-04-15,-1.2136410849069368
2013-04-16,-1.1783833884194832
2013-04-17,-1.1349015084964156
2013-04-18,-1.0930497366537113
2013-04-21,-1.0627166536926174
2013-04-22,-1.084578890750996
2013-04-23,-1.1026536736694832
2013-04-24,-1.0972048924235305
2013-04-25,-1.08288371248038
2013-04-28,-1.1036699489490611
2013-04-29,-1.1281558606841129
2013-04-30,-1.144963752083923
2013-05-01,-1.1435304773628172
2013-05-02,-1.1603495297434956
2013-05-05,-1.1633727515211576
2013-05-06,-1.1624760397639051
2013-05-07,-1.1894210743683733
2013-05-08,-1.2140696390856056
2013-05-09,-1.188070355426062
2013-05-12,-1.1942972147191853
2013-05-13,-1.171193205999454
2013-05-14,-1.153813974330803
2013-05-15,-1.157303520233634
2013-05-16,-1.1394360577134903
2013-05-19,-1.1513587629433784
2013-05-20,-1.1561344325894998
2013-05-21,-1.15612534558438
2013-05-22,-1.1601900651281885
2013-05-23,-1.1461907945538674
2013-05-26,-1.1124562110020335
2013-05-27,-1.0944618092689014
2013-05-28,-1.035912511695733
2013-05-29,-1.0015407719103926
2013-05-30,-0.9166770059648437
2013-06-02,-0.8989692837126111
2013-06-03,-0.8273581996140918
2013-06-04,-0.7212458055815182
2013-06-05,-0.7330496170805081
2013-06-06,-0.71439008832514
2013-06-09,-0.6604089411052634
2013-06-10,-0.5954742443602298
2013-06-11,-0.5351783368583355
2013-06-12,-0.5732316675421423
2013-06-13,-0.5119334202697553
2013-06-16,-0.4202114479100973
2013-06-17,-0.24692470603451241
2013-06-18,-0.33555718949055585
2013-06-19,-0.1349971893388467
2013-06-20,-0.1268474935489694
2013-06-23,-0.16111651274699626
2013-06-24,-0.18553290181072157
2013-06-25,-0.2004302583025385
2013-06-26,-0.20796950565901282
2013-06-27,-0.20312279163905061
2013-06-30,-0.21269106849521713
2013-07-01,-0.16678176246130405
2013-07-02,-0.164506884788096
2013-07-03,-0.233108302810164
2013-07-04,-0.25238198368130144
2013-07-07,-0.2928628554053379
2013-07-08,-0.3796924577015444
2013-07-09,-0.39923222485029264
2013-07-10,-0.45291806192621614
2013-07-11,-0.5123949964101266
2013-07-14,-0.5376351346680665
2013-07-15,-0.44222976424602517
2013-07-16,-0.41435624810047356
2013-07-17,-0.39958050396204164
2013-07-18,-0.4165888970186162
2013-07-21,-0.472366704969693
2013-07-22,-0.49565300080087077
2013-07-23,-0.4780321392941849
2013-07-24,-0.44352892119258935
2013-07-25,-0.5192255615279212
2013-07-28,-0.5484203423619627
2013-07-29,-0.5970027607843202
2013-07-30,-0.5876920425190033
2013-07-31,-0.5768250381237421
2013-08-01,-0.5745089541740745
2013-08-04,-0.5057180443872659
2013-08-05,-0.5684572698044129
2013-08-06,-0.6070932474264925
2013-08-07,-0.6089089423253463
2013-08-08,-0.57764506815053
2013-08-11,-0.5926709066006246
2013-08-12,-0.5873718600372762
2013-08-13,-0.6142905069138797
2013-08-14,-0.5852338180145372
2013-08-15,-0.5652868522483805
2013-08-18,-0.42644221366178037
2013-08-19,-0.45856204940828105
2013-08-20,-0.42656038499045745
2013-08-21,-0.3542689352908512
2013-08-22,-0.18903213526188398
2013-08-25,0.0799115059980392
2013-08-26,0.15304860303591258
2013-08-27,0.19911847140553446
2013-08-28,0.16748287246578128
2013-08-29,0.12774072950953103
2013-09-01,0.29668109031580325
2013-09-02,0.25252339469109686
2013-09-03,0.1970811446009135
2013-09-04,0.22001379403409513
2013-09-05,0.3157231246270911
2013-09-08,0.7607501296413336
2013-09-09,0.7030664309945448
2013-09-10,0.6217363141106969
2013-09-11,0.5095634717530957
2013-09-12,0.399849645508341
2013-09-15,0.3212965421779857
2013-09-16,0.24835437914103603
2013-09-17,0.22578951106367817
2013-09-18,0.34811249802760597
2013-09-19,0.28251047477922986
2013-09-22,0.781000369327664
2013-09-23,0.6548599866487878
2013-09-24,0.6258425651702509
2013-09-25,0.5715013610368852
2013-09-26,0.4947558841469595
2013-09-29,0.427934897709411
2013-09-30,0.3310859378785414
2013-10-01,0.21560942007302036
2013-10-02,0.17131902890776607
2013-10-03,0.05725843378707425
2013-10-06,-0.010892293740265692
2013-10-07,-0.010892293740265692
2013-10-08,-0.010892293740265692
2013-10-09,-0.06690079153021891
2013-10-10,-0.08543917203214894
2013-10-13,-0.14725317256378212
2013-10-14,-0.21350471791031855
2013-10-15,-0.2596714891148814
2013-10-16,-0.3290847735476032
2013-10-17,-0.35108102007166286
2013-10-20,-0.41171144994979897
2013-10-21,-0.4055763074773106
2013-10-22,-0.49821007996915473
2013-10-23,-0.502512072561041
2013-10-24,-0.5457122993286239
2013-10-28,-0.5467856521759535
2013-10-29,-0.5917561124520581
2013-10-30,-0.6808969724668003
2013-10-31,-0.6479159849530507
2013-11-01,-0.488035860440176
2013-11-04,-0.5233307173476787
2013-11-05,-0.4655025371111019
2013-11-06,-0.40634933670225104
2013-11-07,-0.4283255202172435
2013-11-08,-0.3561830066985309
2013-11-11,-0.36009941510385896
2013-11-12,-0.37471440524313787
2013-11-13,-0.4139685500891508
2013-11-14,-0.45029962526809747
2013-11-15,-0.4635618831739959
2013-11-18,-0.40237825298240054
2013-11-19,-0.2885207224846344
2013-11-20,-0.4040378851087505
2013-11-21,-0.3684031639534868
2013-11-22,-0.3522596636012883
2013-11-25,-0.35041258139328896
2013-11-26,-0.3895071759036497
2013-11-27,-0.4220082318996285
2013-11-28,-0.40242640242854244
2013-11-29,-0.41116404953264085
2013-12-02,-0.41217411565713286
2013-12-03,-0.4500455958495119
2013-12-04,-0.4799515367988476
2013-12-05,-0.48719435576477715
2013-12-06,-0.40264943413671045
2013-12-09,-0.33017267810790013
2013-12-10,-0.3656541257807647
2013-12-11,-0.3394196185820919
2013-12-12,-0.33516032972674864
2013-12-13,-0.4018490704203308
2013-12-16,-0.44254940538823473
2013-12-17,-0.5364287188229634
2013-12-18,-0.54405816369327
2013-12-19,-0.5188281022759493
2013-12-20,-0.4434281971994614
2013-12-23,-0.464395560959771
2013-12-24,-0.4404320276596292
2013-12-25,-0.5747885409940373
2013-12-26,-0.6891159993049837
2013-12-27,-0.7325489548399136
2013-12-30,-0.6571414261186822
2013-12-31,-0.6846776836071437
2014-01-01,-0.7636386807732295
2014-01-02,-0.6567438372617953
2014-01-03,-0.6779964237767164
2014-01-06,-0.7114428425107678
2014-01-07,-0.7239609077951553
2014-01-08,-0.7315057640313252
2014-01-09,-0.7370281189060656
2014-01-10,-0.7277026726707009
2014-01-13,-0.6538272412896932
2014-01-14,-0.6800932261793162
2014-01-15,-0.6785445513870014
2014-01-16,-0.6782181215315172
2014-01-17,-0.7257054241857612
2014-01-20,-0.6897791204208714
2014-01-21,-0.7123575982771502
2014-01-22,-0.723690651670088
2014-01-23,-0.7316205364816679
2014-01-24,-0.6286066601522343
2014-01-27,-0.6377749119461742
2014-01-28,-0.6444359083831322
2014-01-29,-0.665064723579945
2014-01-30,-0.6657015886666873
2014-01-31,-0.6137047378662561
2014-02-03,-0.6446750557545222
2014-02-04,-0.6545454683026125
2014-02-05,-0.5914988495708519
2014-02-06,-0.5940588041469287
2014-02-07,-0.6105073411768155
2014-02-10,-0.6483686271633153
2014-02-11,-0.6313133059995896
2014-02-12,-0.6728711527705568
2014-02-13,-0.6914643316618015
2014-02-14,-0.6354139457250886
2014-02-17,-0.68112068997674
2014-02-18,-0.6935698817594158
2014-02-19,-0.7140160302187063
2014-02-20,-0.7204124307962275
2014-02-21,-0.6908068076490091
2014-02-24,-0.6481357151964373
2014-02-25,-0.6936718950688457
2014-02-26,-0.7096669545560547
2014-02-27,-0.7645064280370233
2014-02-28,-0.754337143925569
2014-03-03,-0.79783965847385
2014-03-04,-0.8397154317871504
2014-03-05,-0.8815616699284275
2014-03-06,-0.8408165135265375
2014-03-07,-0.8126082823922259
2014-03-10,-0.7782698518769182
2014-03-11,-0.7982177228525466
2014-03-12,-0.8119275473793102
2014-03-13,-0.8390972258953697
2014-03-14,-0.8746926544830974
2014-03-17,-0.8666494025692527
2014-03-18,-0.9176775544832084
2014-03-19,-0.950621565324553
2014-03-20,-0.947150989326532
2014-03-21,-0.9172716879436364
2014-03-24,-0.9420994404704592
2014-03-25,-0.9414589967758944
2014-03-26,-0.9308681095101043
2014-03-27,-0.8495795817031319
2014-03-28,-0.782242597627883
2014-03-30,-0.7993145506967076
2014-03-31,-0.826273868280739
2014-04-01,-0.8250213411352989
2014-04-02,-0.8134919322187861
2014-04-03,-0.763171839071395
2014-04-06,-0.6535076664429561
2014-04-07,-0.6264624386852831
2014-04-08,-0.6398525159246117
2014-04-09,-0.640809154912904
2014-04-10,-0.6376249844315817
2014-04-13,-0.6794654803370707
2014-04-14,-0.6631538346403137
2014-04-15,-0.6987280929714379
2014-04-16,-0.7280590578995446
2014-04-17,-0.79379825684701
2014-04-20,-0.876314750780095
2014-04-21,-0.8800030213090418
2014-04-22,-0.9000879168747231
2014-04-23,-0.8972651858228308
2014-04-24,-0.8450341073864729
2014-04-27,-0.8324455339960448
2014-04-28,-0.8048365404458631
2014-04-29,-0.7836423108462037
2014-04-30,-0.8183847920848101
2014-05-01,-0.8321344917759714
2014-05-04,-0.8319442537917076
2014-05-05,-0.8428742979180515
2014-05-06,-0.8282186761071355
2014-05-07,-0.8371934920608323
2014-05-08,-0.8629277264016622
2014-05-11,-0.8894153552638699
2014-05-12,-0.9132705589161242
2014-05-13,-0.9465284992723256
2014-05-14,-0.9044769763215096
2014-05-15,-0.9365119102302369
2014-05-18,-0.9729226382105994
2014-05-19,-0.965637875277705
2014-05-20,-1.0162579667527414
2014-05-21,-1.0143929421700972
2014-05-22,-1.0282104837193855
2014-05-25,-1.0647353023900465
2014-05-26,-1.032381360991207
2014-05-27,-1.0389904514408217
2014-05-28,-1.0691919282085125
2014-05-29,-1.0387409960051521
2014-06-01,-0.9582637597910604
2014-06-02,-0.9231487099531176
2014-06-03,-0.9338579101080787
2014-06-04,-0.9471341688841189
2014-06-05,-0.9065203119584507
2014-06-08,-0.8858376793865511
2014-06-09,-0.8618194871569856
2014-06-10,-0.8635813387217944
2014-06-11,-0.910754700644192
2014-06-12,-0.9145745148692753
2014-06-15,-0.9266366002576111
2014-06-16,-0.886376195143717
2014-06-17,-0.8863839955738494
2014-06-18,-0.7919845318673358
2014-06-19,-0.7776319198853057
2014-06-22,-0.8094716239603349
2014-06-23,-0.8231175009827051
2014-06-24,-0.8409717852432271
2014-06-25,-0.8334863099269064
2014-06-26,-0.8435657397980741
2014-06-29,-0.8392269832819504
2014-06-30,-0.8574114787878436
2014-07-01,-0.8483815174526377
2014-07-02,-0.8026040971121849
2014-07-03,-0.8048933959970387
2014-07-06,-0.8118320638636687
2014-07-07,-0.8541866788271042
2014-07-08,-0.8613066208926363
2014-07-09,-0.8605135490142912
2014-07-10,-0.8945780239012706
2014-07-13,-0.9339839905538515
2014-07-14,-0.918373897288041
2014-07-15,-0.9364583751949295
2014-07-16,-0.8784661956458638
2014-07-17,-0.8571958791778135
2014-07-20,-0.789315969693438
2014-07-21,-0.8314277638265776
2014-07-22,-0.8516502342859985
2014-07-23,-0.8922713591149725
2014-07-24,-0.8911176317599536
2014-07-27,-0.9266983226242603
2014-07-28,-0.9434477536354997
2014-07-29,-0.8805136663226929
2014-07-30,-0.8254068719793177
2014-07-31,-0.7949687268550139
2014-08-03,-0.8196465255321631
2014-08-04,-0.8429318465490812
2014-08-05,-0.8112419176317889
2014-08-06,-0.8081013391275478
2014-08-07,-0.798521086098513
2014-08-10,-0.7959189161278668
2014-08-11,-0.8179372878115495
2014-08-12,-0.8350509178490656
2014-08-13,-0.8761172626544459
2014-08-14,-0.8724151762902573
2014-08-17,-0.8982250869563805
2014-08-18,-0.9233020994638419
2014-08-19,-0.9265958921881817
2014-08-20,-0.970008645433492
2014-08-21,-0.967004477824273
2014-08-24,-0.9849473427743947
2014-08-25,-1.0190090228889719
2014-08-26,-0.9688185961918413
2014-08-27,-0.9992194396354805
2014-08-28,-1.017823014290905
2014-08-31,-1.0413915413688843
2014-09-01,-1.0451357092426323
2014-09-02,-1.0708257748763046
2014-09-03,-1.0928297242819969
2014-09-04,-1.1003041823227306
2014-09-07,-1.0854016344974435
2014-09-08,-0.9997404272005366
2014-09-09,-0.9820250025316368
2014-09-10,-0.9789029683220746
2014-09-11,-0.8530901313492139
2014-09-14,-0.7699541553628584
2014-09-15,-0.623524892415089
2014-09-16,-0.6404566744058489
2014-09-17,-0.6187865906254351
2014-09-18,-0.6423506019183305
2014-09-21,-0.6146216807333668
2014-09-22,-0.5785071722551867
2014-09-23,-0.6301234015606307
2014-09-24,-0.5414407269973895
2014-09-25,-0.4498369715924955
2014-09-28,-0.3173878866264361
2014-09-29,-0.3261985909547501
2014-09-30,-0.27144216752240324
2014-10-01,-0.20837958115667507
2014-10-02,-0.2653308241898784
2014-10-05,0.034237512375684974
2014-10-06,0.11841162316054195
2014-10-07,0.13844839568898148
2014-10-08,0.09522684537392127
2014-10-09,0.08915300064262349
2014-10-12,0.09313878187288521
2014-10-13,-0.02422282902192581
2014-10-14,0.045615905208469754
2014-10-15,0.251150633996811
2014-10-16,0.210985592932599
2014-10-19,0.1951623770146996
2014-10-20,0.25377340702279455
2014-10-21,0.17380723849033738
2014-10-22,0.11880449895559582
2014-10-23,0.1114167584166354
2014-10-27,0.24746252301206023
2014-10-28,0.24606403807797098
2014-10-29,0.4265445962308066
2014-10-30,0.4815861054989589
2014-10-31,0.512333851665301
2014-11-03,0.672314248192812
2014-11-04,0.8752901522341855
2014-11-05,0.7627770442081834
2014-11-06,0.7323450475694425
2014-11-07,0.8184854569302095
2014-11-10,0.7255791639138813
2014-11-11,0.6219085863954437
2014-11-12,0.5100937133597456
2014-11-13,0.4229256206529153
2014-11-14,0.4500887330638554
2014-11-17,0.3827560471492244
2014-11-18,0.2680314939311302
2014-11-19,0.21407311883153396
2014-11-20,0.12768712758692027
2014-11-21,0.1503933648104486
2014-11-24,0.22738129585529007
2014-11-25,0.1633687256924789
2014-11-26,0.15909160527071473
2014-11-27,0.11069331696710534
2014-11-28,0.23050097454910726
2014-12-01,0.21994780427848948
2014-12-02,0.20274398580388583
2014-12-03,0.14974678110365097
2014-12-04,0.14051909985966013
2014-12-05,0.16008743381031645
2014-12-08,0.06274867076657872
2014-12-09,-0.001721762206471473
2014-12-10,-0.06899161033309663
2014-12-11,-0.01668755506123682
2014-12-12,0.007075601893146305
2014-12-15,0.0517249510387835
2014-12-16,0.2657086546325607
2014-12-17,0.28484999052008286
2014-12-18,0.3970307756545704
2014-12-19,0.4956453130046887
2014-12-22,0.3828532430118664
2014-12-23,0.42694711566226906
2014-12-24,0.3453478433507765
2014-12-25,0.22366952479213087
2014-12-26,0.05255761297151171
2014-12-29,0.036203567613150335
2014-12-30,0.07136790169802909
2014-12-31,0.12364227974679708
2015-01-01,-0.05106127567232798
2015-01-02,-0.02817485369642342
2015-01-05,0.030469276558170614
2015-01-06,-0.03280615231089784
2015-01-07,-0.04269256355927473
2015-01-08,-0.06371991630409923
2015-01-09,-0.02734174737517126
2015-01-12,-0.017626468845006304
2015-01-13,0.006573975683315176
2015-01-14,0.09420494253760012
2015-01-15,0.0882040908691146
2015-01-16,0.018953635172183878
2015-01-19,-0.006847239786017797
2015-01-20,-0.044873642656883046
2015-01-21,0.0290317057900958
2015-01-22,0.09802832308056791
2015-01-23,0.03214858185560423
2015-01-26,-0.020140128271220564
2015-01-27,-0.070545042051901
2015-01-28,-0.09106382126324437
2015-01-29,-0.14010498001318727
2015-01-30,0.1138666450948223
2015-02-02,0.336369436893428
2015-02-03,0.31344134364638737
2015-02-04,0.2758611899689615
2015-02-05,0.3268569075139775
2015-02-06,0.28276516471437924
2015-02-09,0.27662372869204604
2015-02-10,0.3842089916994954
2015-02-11,0.5685202783786567
2015-02-12,0.5156819792238936
2015-02-13,0.5032698523918248
2015-02-16,0.36438783346708264
2015-02-17,0.2402388487034392
2015-02-18,0.19196788559223682
2015-02-19,0.17157952048244585
2015-02-20,0.1607923578545101
2015-02-23,0.11782592178565278
2015-02-24,0.044238287199342356
2015-02-25,0.05920693062938414
2015-02-26,0.0645912722506832
2015-02-27,0.11660925065160208
2015-03-02,0.1993423334399934
2015-03-03,0.2972685816436933
2015-03-04,0.48853034222049246
2015-03-05,0.5361825197616424
2015-03-06,0.6803909924192025
2015-03-09,0.8402144211678719
2015-03-10,1.0119458958730525
2015-03-11,0.978895238583724
2015-03-12,0.9493160094413895
2015-03-13,1.2469047653044467
2015-03-16,1.2988824652308537
2015-03-17,1.2631070092943268
2015-03-18,1.2254442754193906
2015-03-19,1.2597033076717477
2015-03-20,1.384070842195145
2015-03-23,1.6050683380392659
2015-03-24,1.8147229661141082
2015-03-25,1.7184075326576311
2015-03-26,1.7189357928947326
2015-03-27,1.6650036415677851
2015-03-29,1.764863819889622
2015-03-30,1.826492454794199
2015-03-31,1.8637270399317258
2015-04-01,1.7650219824003184
2015-04-02,1.6311619434636266
2015-04-05,1.475024217734405
2015-04-06,1.3466991903807326
2015-04-07,1.3178744785887342
2015-04-08,1.4436402640353985
2015-04-09,1.37346051556625
2015-04-12,1.3305069445142736
2015-04-13,1.2617441459672512
2015-04-14,1.2689756582584446
2015-04-15,1.2379279589480434
2015-04-16,1.21576195391777
2015-04-19,1.095219212877472
2015-04-20,0.9418217695762668
2015-04-21,0.8463995191205634
2015-04-22,0.8218416022917258
2015-04-23,0.7831182633066589
2015-04-26,0.8178733371727964
2015-04-27,0.8408903481624466
2015-04-28,0.7637841540709889
2015-04-29,0.8313891315808126
2015-04-30,1.073352777268126
2015-05-03,1.1466123830648716
2015-05-04,1.172063594914596
2015-05-05,1.1520106311871894
2015-05-06,1.084890900185986
2015-05-07,1.066621889862461
2015-05-10,1.145175163283214
2015-05-11,1.2680974996442913
2015-05-12,1.2845009808629007
2015-05-13,1.1905172051676605
2015-05-14,1.1861763524067936
2015-05-17,1.0633042009691218
2015-05-18,1.0069633112030838
2015-05-19,0.8935600905438417
2015-05-20,0.8515651139179756
2015-05-21,0.8706946802097734
2015-05-24,0.9776814241765249
2015-05-25,0.9992795740171266
2015-05-26,1.0774599005992158
2015-05-27,1.0371381154156458
2015-05-28,0.9930324562729462
2015-05-31,0.9398598653222838
2015-06-01,0.8738253129017801
2015-06-02,0.9032119787088776
2015-06-03,0.7176217721506298
2015-06-04,0.7911156187828585
2015-06-07,0.7112709833360032
2015-06-08,0.6993268832095998
2015-06-09,0.6567670372510871
2015-06-10,0.6990663094765684
2015-06-11,0.6206135124382596
2015-06-14,0.57590138172199
2015-06-15,0.5136505256035626
2015-06-16,0.5202648401062079
2015-06-17,0.5271471481809769
2015-06-18,0.4994774108526031
2015-06-21,0.4449067436203551
2015-06-22,0.39608509271047604
2015-06-23,0.32705647512301905
2015-06-24,0.31330870642334224
2015-06-25,0.27055491457713066
2015-06-28,0.24936608020631706
2015-06-29,0.2678236313182257
2015-06-30,0.19018587609471402
2015-07-01,0.20657680547493812
2015-07-02,0.24178895860187
2015-07-05,0.2915161839186361
2015-07-06,0.34731724447426604
2015-07-07,0.5313018775229846
2015-07-08,0.5255487120538411
2015-07-09,0.5294620445756849
2015-07-12,0.6019572018924579
2015-07-13,0.5537647748344305
2015-07-14,0.49605688335436443
2015-07-15,0.3695371902322385
2015-07-16,0.41013954186112134
2015-07-19,0.4685741745412613
2015-07-20,0.3743757609777382
2015-07-21,0.4442502847315844
2015-07-22,0.6935044784731051
2015-07-23,0.89681790612807
2015-07-26,0.9997173715622926
2015-07-27,0.9782766271115546
2015-07-28,0.9013531295892382
2015-07-29,0.9054495176229587
2015-07-30,0.9892213241783052
2015-08-02,1.0651583187453448
2015-08-03,1.0364516647962965
2015-08-04,0.9624070312156084
2015-08-05,1.0795028966482596
2015-08-06,1.123816090794536
2015-08-09,1.1331249386423565
2015-08-10,1.2987431256884345
2015-08-11,1.2748247363047975
2015-08-12,1.2807516984107237
2015-08-13,1.2488628533751605
2015-08-16,1.2122175592087399
2015-08-17,1.103775102947516
2015-08-18,1.035658099172416
2015-08-19,1.0053563807241577
2015-08-20,0.9720359584803023
2015-08-23,1.1669311718448834
2015-08-24,1.1179972477482556
2015-08-25,1.2428608637904006
2015-08-26,1.2414451797430064
2015-08-27,1.1949634948950794
2015-08-30,1.407255320162668
2015-08-31,1.4866527509491732
2015-09-01,1.6940291884283296
2015-09-02,1.8403152352287315
2015-09-03,1.877302923514673
2015-09-06,1.9631095343237668
2015-09-07,1.8784083985216953
2015-09-08,1.839741352681789
2015-09-09,2.01930561962338
2015-09-10,2.1116291843910227
2015-09-13,1.9741141594980507
2015-09-14,1.9674843297955247
2015-09-15,1.8413760328571294
2015-09-16,1.8934670643484497
2015-09-17,1.923326192675435
2015-09-20,1.9902960903473386
2015-09-21,1.9902960903473386
2015-09-22,1.9902960903473386
2015-09-23,2.4513183725451206
2015-09-24,3.287795158254852
2015-09-27,3.262677544339297
2015-09-28,3.540466553051213
2015-09-29,3.698754933759023
2015-09-30,3.7062065435723768
2015-10-01,3.6001052904203608
2015-10-04,3.5970528407782454
2015-10-05,3.576325318373033
2015-10-06,3.6064277676797034
2015-10-07,3.489397429524456
2015-10-08,3.6717800041712483
2015-10-11,3.3851764044858297
2015-10-12,3.380058163642092
2015-10-13,3.4497990246243493
2015-10-14,3.4410574683134976
2015-10-15,3.2603878376418516
2015-10-18,3.3579369425996717
2015-10-19,3.2273290080866266
2015-10-20,3.145658539278143
2015-10-21,2.950836961759662
2015-10-22,2.8434058119750096
2015-10-26,2.7539309923007695
2015-10-27,2.5722339113592705
2015-10-28,2.3848121137739215
2015-10-29,2.296729650065398
2015-10-30,2.2268815186107207
2015-11-02,1.9678079849914698
2015-11-03,2.007432089819583
2015-11-04,2.1602674663597674
2015-11-05,2.0112917271658173
2015-11-06,1.9846333381030374
2015-11-09,1.8122965821026227
2015-11-10,1.7034709808886834
2015-11-11,1.765308572170674
2015-11-12,1.751619442903313
2015-11-13,1.6888721702416427
2015-11-16,1.7497667376824717
2015-11-17,1.6637262348405313
2015-11-18,1.5798212565887066
2015-11-19,1.6376484211813358
2015-11-20,1.5907157753056622
2015-11-23,1.5758455813558865
2015-11-24,1.4727238944853003
2015-11-25,1.6051088175759363
2015-11-26,1.5676516112302412
2015-11-27,1.4793550044411892
2015-11-30,1.8813475941711921
2015-12-01,1.8259788376133304
2015-12-02,1.6386309833537769
2015-12-03,1.6500766831757796
2015-12-04,1.7746910535762914
2015-12-07,1.6453428849631866
2015-12-08,1.6269793510489463
2015-12-09,1.7067884062208203
2015-12-10,1.7029551678200292
2015-12-11,1.9331081925637936
2015-12-14,2.0343698737828673
2015-12-15,2.0015358618008205
2015-12-16,1.9658635193931815
2015-12-17,1.8634116324268366
2015-12-18,1.7838699371601086
2015-12-21,2.0736832184136147
2015-12-22,1.9631806560658986
2015-12-23,1.86985531049282
2015-12-24,1.7580092060952301
2015-12-25,1.56485866664121
2015-12-28,1.591928196063931
2015-12-29,1.5737089246581448
2015-12-30,1.8428248166118488
2015-12-31,1.8944790475933446
2016-01-01,1.611981064843924
2016-01-04,1.730140033413806
2016-01-05,1.8198455946670602
2016-01-06,1.6827371963251891
2016-01-07,1.576915783376632
2016-01-08,1.4449545688470455
2016-01-11,1.371688002257145
2016-01-12,1.319214536163781
2016-01-13,1.3627112027610557
2016-01-14,1.2786616984992636
2016-01-15,1.2109891775430033
2016-01-18,1.1096389286019377
2016-01-19,1.0718212206384707
2016-01-20,1.0348546179633382
2016-01-21,1.1908687865398817
2016-01-22,1.1361406406950667
2016-01-25,1.125685706821394
2016-01-26,1.102277041883425
2016-01-27,1.0772084483027604
2016-01-28,1.1468719542335681
2016-01-29,1.2763566062107585
2016-02-01,1.3999221330863587
2016-02-02,1.3561834299420743
2016-02-03,1.279653805804639
2016-02-04,1.572931423795051
2016-02-05,1.5005432851205454
2016-02-08,1.3141036656516971
2016-02-09,1.0972934920756794
2016-02-10,1.11516230118525
2016-02-11,1.2150610238033004
2016-02-12,1.2234063103888275
2016-02-15,1.096385515525678
2016-02-16,1.187257113213403
2016-02-17,1.2631215045160449
2016-02-18,1.344303429871408
2016-02-19,1.3730357256307486
2016-02-22,1.4434037616877378
2016-02-23,1.4683891065994128
2016-02-24,1.4179124733625454
2016-02-25,1.288108736616711
2016-02-26,1.2308875357282296
2016-02-29,1.1385090216432647
2016-03-01,1.0682791730931374
2016-03-02,1.2714845549402085
2016-03-03,1.3413301152753603
2016-03-04,1.9578307315570955
2016-03-07,1.8768368765054937
2016-03-08,1.7246207332682324
2016-03-09,1.7976403689619809
2016-03-10,1.9206082185718658
2016-03-11,1.9451970934471854
2016-03-14,1.868068028427106
2016-03-15,2.2248015747633354
2016-03-16,2.6049234446957428
2016-03-17,2.7531576510597136
2016-03-18,2.8811775638214514
2016-03-21,2.668700570939275
2016-03-22,2.5373010223405283
2016-03-23,2.547828111630703
2016-03-24,2.7049529637447023
2016-03-25,2.458045512037448
2016-03-27,2.270609993760105
2016-03-28,2.2490955251082743
2016-03-29,2.2180110858218467
2016-03-30,2.277260408009901
2016-03-31,2.2408321886101654
2016-04-03,2.17220494177602
2016-04-04,2.2928512490221733
2016-04-05,2.281965552769135
2016-04-06,2.2844450212653147
2016-04-07,2.2001150433240286
2016-04-10,2.5312759555446025
2016-04-11,2.626644301864652
2016-04-12,2.5393444652843544
2016-04-13,2.3257404169959623
2016-04-14,2.334348679203955
2016-04-17,2.473030846288055
2016-04-18,2.4252106703385317
2016-04-19,2.471510886052605
2016-04-20,2.244981580471724
2016-04-21,2.186054188708729
2016-04-24,2.0110134645580096
2016-04-25,1.8492161345564753
2016-04-26,1.6949033395375637
2016-04-27,1.5730858389090352
2016-04-28,1.6473023246070104
2016-05-01,1.694374479621453
2016-05-02,1.935783248699249
2016-05-03,1.8911668441986693
2016-05-04,1.769769241575039
2016-05-05,1.677034932686644
2016-05-08,2.0896143470574837
2016-05-09,1.952561044159543
2016-05-10,1.9000822324130824
2016-05-11,1.8809697149486795
2016-05-12,1.832493909860826
2016-05-15,1.72343217300425
2016-05-16,1.6262330157005958
2016-05-17,1.5944718133068996
2016-05-18,1.7778571870428284
2016-05-19,1.5834744788454098
2016-05-22,1.531813670339546
2016-05-23,1.357226850463886
2016-05-24,1.3539359454795443
2016-05-25,1.2116764774538487
2016-05-26,1.2087860257326752
2016-05-29,1.0643068560552618
2016-05-30,1.0304779005349691
2016-05-31,1.0220190880321294
2016-06-01,0.9308644411253201
2016-06-02,0.9339635458396361
2016-06-05,0.9923746413115986
2016-06-06,1.0266215065371251
2016-06-07,1.203179109355698
2016-06-08,1.3127027646803968
2016-06-09,1.3507250549270986
2016-06-12,1.3390132282348906
2016-06-13,1.4214339920198118
2016-06-14,1.2810172640188007
2016-06-15,1.153221860730297
2016-06-16,1.1048969464341223
2016-06-19,1.190342074377173
2016-06-20,1.15676616630323
2016-06-21,1.0400671792739842
2016-06-22,1.069426541772023
2016-06-23,1.2947577517825948
2016-06-26,1.2900053691907214
2016-06-27,1.345938681364145
2016-06-28,1.6855395012437324
2016-06-29,1.8068866209703351
2016-06-30,1.700764697331333
2016-07-03,1.5777882386797202
2016-07-04,1.5328273869152442
2016-07-05,1.4444300128666565
2016-07-06,1.3508698455928407
2016-07-07,1.3887574680195365
2016-07-10,1.4398583910607812
2016-07-11,1.3440332126172423
2016-07-12,1.1958171200539176
2016-07-13,1.2403372693702315
2016-07-14,1.1465462641223874
2016-07-17,1.0290963871470782
2016-07-18,0.9655731316159449
2016-07-19,0.8303214557453642
2016-07-20,0.7021390580063426
2016-07-21,0.6323521132292612
2016-07-24,0.5986486243091286
2016-07-25,0.5214449612530192
2016-07-26,0.4286531741188959
2016-07-27,0.37062626733026327
2016-07-28,0.40189527044600104
2016-07-31,0.36206942411938997
2016-08-01,0.28843627274298483
2016-08-02,0.23190974608746517
2016-08-03,0.2575377352600463
2016-08-04,0.3513071696866271
2016-08-07,0.32879298459948464
2016-08-08,0.3038145102415463
2016-08-09,0.3261575562856262
2016-08-10,0.3117335513932729
2016-08-11,0.2946376095171799
2016-08-14,0.2969036993334525
2016-08-15,0.2349594667360845
2016-08-16,0.21890472042157183
2016-08-17,0.21177141012073827
2016-08-18,0.17034672529746522
2016-08-21,0.12299561122841719
2016-08-22,0.058294270529758684
2016-08-23,0.06263313525740728
2016-08-24,-0.02293171671306439
2016-08-25,-0.020565664144040843
2016-08-28,0.025687838938587948
2016-08-29,0.06567574192137011
2016-08-30,0.004328233064777236
2016-08-31,0.04991426752423194
2016-09-01,0.047447257799772914
2016-09-04,-0.00741510418926212
2016-09-05,0.0449332969321487
2016-09-06,0.2131243308797056
2016-09-07,0.21380835165213707
2016-09-08,0.3425404311232932
2016-09-11,0.4724435865645116
2016-09-12,0.5360537103001898
2016-09-13,0.6847140514088145
2016-09-14,0.6543046482466129
2016-09-15,0.648280683570792
2016-09-18,0.6086265500941619
2016-09-19,0.4962795046600014
2016-09-20,0.4460097046131239
2016-09-21,0.5259466326156654
2016-09-22,0.43209285393293206
2016-09-25,0.35160691806665056
2016-09-26,0.2542864170699013
2016-09-27,0.14910848826937642
2016-09-28,0.05218371328310211
2016-09-29,0.030673262781727502
2016-10-02,-0.006330952958680134
2016-10-03,0.030760894265979572
2016-10-04,0.0444708747996049
2016-10-05,0.019068673685527678
2016-10-06,0.029541367486579758
2016-10-09,-0.03551889369748703
2016-10-10,-0.10185555023184026
2016-10-11,-0.2256512212410139
2016-10-12,-0.2969181124361899
2016-10-13,-0.28164560450478443
2016-10-16,-0.33484444933831653
2016-10-17,-0.3738771521687273
2016-10-18,-0.3671760175248783
2016-10-19,-0.3924224312007702
2016-10-20,-0.41993797495828356
2016-10-23,-0.43216011978676616
2016-10-24,-0.38501413023023223
2016-10-25,-0.4326806204567248
2016-10-26,-0.3925316760584096
2016-10-27,-0.33710962050520266
2016-10-31,-0.3311836266034277
2016-11-01,-0.26977735007054354
2016-11-02,-0.2623670248886966
2016-11-03,-0.28806557140358774
2016-11-04,-0.3156307304932548
2016-11-07,-0.18943580499448495
2016-11-08,-0.17961927091549845
2016-11-09,-0.030930109223015124
2016-11-10,0.6036065077642433
2016-11-11,1.3553466721454586
2016-11-14,1.4073531899693346
2016-11-15,1.3356929300155522
2016-11-16,1.2336099188724252
2016-11-17,1.2617323563187257
2016-11-18,1.3015442734818918
2016-11-21,1.3910840494472998
2016-11-22,1.3435396538094806
2016-11-23,1.3049446209919724
2016-11-24,1.3142734973234835
2016-11-25,1.3247871368656776
2016-11-28,1.1894226589791412
2016-11-29,1.0970470797322536
2016-11-30,1.1260386703918714
2016-12-01,1.222561226302626
2016-12-02,1.5965200434196996
2016-12-05,1.7960488171532794
2016-12-06,1.7106930313831523
2016-12-07,1.6240296413735351
2016-12-08,1.5020915954576957
2016-12-09,1.4373625317907452
2016-12-12,1.4187218707213431
2016-12-13,1.365501121953066
2016-12-14,1.2627698434614276
2016-12-15,1.2688174247338924
2016-12-16,1.2359299162978388
2016-12-19,1.1069123827391412
2016-12-20,1.0096939478368094
2016-12-21,0.9105343515597777
2016-12-22,0.8147553605481638
2016-12-23,0.828739526553582
2016-12-26,0.659945672287341
2016-12-27,0.5165365248418763
2016-12-28,0.4570451264272075
2016-12-29,0.4088373373898878
2016-12-30,0.3292720652778995
2017-01-02,0.27093936365682875
2017-01-03,0.23602484338888405
2017-01-04,0.28875534734907593
2017-01-05,0.33216605218045364
2017-01-06,0.22808929381550483
2017-01-09,0.15440037246837982
2017-01-10,0.130031399680879
2017-01-11,0.07556394966157562
2017-01-12,0.048681259243410366
2017-01-13,0.01890587104579574
2017-01-16,0.00865774457952494
2017-01-17,0.038014969068011044
2017-01-18,0.08563747567093075
2017-01-19,0.03545168713584099
2017-01-20,0.02994527352735942
2017-01-23,0.003359281543833225
2017-01-24,-0.062052164453800455
2017-01-25,-0.1857291559910605
2017-01-26,-0.19802049849243833
2017-01-27,-0.2235023355105205
2017-01-30,-0.16534491212601815
2017-01-31,-0.21537405783965938
2017-02-01,-0.24294835564048886
2017-02-02,-0.2407863879402391
2017-02-03,-0.2806139668578229
2017-02-06,-0.36757672975169026
2017-02-07,-0.43314875226000676
2017-02-08,-0.5255059547160197
2017-02-09,-0.6134875479635349
2017-02-10,-0.6592731782040572
2017-02-13,-0.7128950754049452
2017-02-14,-0.7449161664988354
2017-02-15,-0.670987791676531
2017-02-16,-0.6471369138414528
2017-02-17,-0.5898185512561717
2017-02-20,-0.6424779363748332
2017-02-21,-0.6976697160103892
2017-02-22,-0.7296676658632767
2017-02-23,-0.688297365498946
2017-02-24,-0.6324816383005809
2017-02-27,-0.5680651904227862
2017-02-28,-0.6145037186452612
2017-03-01,-0.6994603294910768
2017-03-02,-0.6428472477218472
2017-03-03,-0.5136419405767867
2017-03-06,-0.42772603591132347
2017-03-07,-0.46345634043129263
2017-03-08,-0.46775714062964774
2017-03-09,-0.3588329380897431
2017-03-10,-0.34395083256638614
2017-03-13,-0.26793438750615867
2017-03-14,-0.31248682506983216
2017-03-15,-0.3305329405118275
2017-03-16,-0.19475845845444484
2017-03-17,-0.2404653027490927
2017-03-20,-0.24551491974591227
2017-03-21,-0.2620509635428166
2017-03-22,-0.29258497581877774
2017-03-23,-0.22060774283025278
2017-03-24,-0.146737516993226
2017-03-26,-0.1355281929809196
2017-03-27,-0.20471733033237335
2017-03-28,-0.2623003849721954
2017-03-29,-0.25949657407056526
2017-03-30,-0.2180196934547889
2017-04-02,-0.20208900771352797
2017-04-03,-0.2661535788514932
2017-04-04,-0.2664065405517486
2017-04-05,-0.31032766543270857
2017-04-06,-0.37110357152460816
2017-04-09,-0.43346189833130155
2017-04-10,-0.4772976113850061
2017-04-11,-0.5450284302707101
2017-04-12,-0.607180888913694
2017-04-13,-0.6593405516648351
2017-04-16,-0.6159593928241467
2017-04-17,-0.5123688742000755
2017-04-18,-0.48207724844924826
2017-04-19,-0.45691108868416
2017-04-20,-0.5575669836039177
2017-04-23,-0.4281593447276365
2017-04-24,-0.37019245570248116
2017-04-25,-0.2830460513893456
2017-04-26,-0.28394351942839335
2017-04-27,-0.24960576372623733
2017-04-30,-0.35359229043286255
2017-05-01,-0.40091164165523224
2017-05-02,-0.399313695825216
2017-05-03,-0.3696929938780409
2017-05-04,-0.409198293382086
2017-05-07,-0.44329022965060544
2017-05-08,-0.5097479241914896
2017-05-09,-0.48704795523582994
2017-05-10,-0.47411430332244114
2017-05-11,-0.4372995893196824
2017-05-14,-0.41459138917010785
2017-05-15,-0.22801583342294887
2017-05-16,-0.31318227128764176
2017-05-17,0.6828601786928618
2017-05-18,1.336013568243222
2017-05-21,1.5845081762733306
2017-05-22,1.3854250744846075
2017-05-23,1.2061155288124215
2017-05-24,1.0322093617508412
2017-05-25,0.9362544115754547
2017-05-28,0.761261811881491
2017-05-29,0.8675500763079548
2017-05-30,0.7133844882056741
2017-05-31,0.629096074163114
2017-06-01,0.5045504731219207
2017-06-04,0.4810863401401432
2017-06-05,0.45929821665706416
2017-06-06,0.36317081538574825
2017-06-07,0.24651320656539308
2017-06-08,0.14855450860172245
2017-06-11,0.15199954801601429
2017-06-12,0.5380083755362643
2017-06-13,0.49919661174156615
2017-06-14,0.45538244840506553
2017-06-15,0.3343596281931252
2017-06-18,0.28010619686928084
2017-06-19,0.2382431236323044
2017-06-20,0.22121338584904618
2017-06-21,0.11358492651212887
2017-06-22,-0.0070882347540429345
2017-06-25,-0.048799646738659525
2017-06-26,0.03723324429956191
2017-06-27,-0.06984133469170282
2017-06-28,-0.10632993778703274
2017-06-29,-0.15168910351425366
2017-07-02,-0.16678210063941087
2017-07-03,0.16239904927906337
2017-07-04,0.16818719366680904
2017-07-05,0.1028494391031584
2017-07-06,0.012931104991281793
2017-07-09,-0.002073364727270627
2017-07-10,-0.002073364727270627
2017-07-11,-0.002073364727270627
2017-07-12,0.029921696454162233
2017-07-13,-0.05024063823510717
2017-07-16,-0.0932423650021262
2017-07-17,-0.15760503326031094
2017-07-18,-0.19836512001752388
2017-07-19,-0.26324168451446056
2017-07-20,-0.21615531510671757
2017-07-23,-0.2615705314159645
2017-07-24,-0.27056120058536226
2017-07-25,-0.31645845549975316
2017-07-26,-0.25809949340900723
2017-07-27,-0.3460987152983611
2017-07-30,-0.3817594232144028
2017-07-31,-0.269032896634186
2017-08-01,-0.3734004477777328
2017-08-02,-0.3981325018136663
2017-08-03,-0.4567797512603398
2017-08-06,-0.5132152674411706
2017-08-07,-0.5978940118833386
2017-08-08,-0.6382825806877558
2017-08-09,-0.6420524414639206
2017-08-10,-0.683966800200401
2017-08-13,-0.6972851911681633
2017-08-14,-0.7308314556383507
2017-08-15,-0.7637636619598024
2017-08-16,-0.7356844786910794
2017-08-17,-0.7708043457270396
2017-08-20,-0.7434225741982374
2017-08-21,-0.749292959668855
2017-08-22,-0.8148631742729049
2017-08-23,-0.8279347289997777
2017-08-24,-0.888803178272826
2017-08-27,-0.9478376324875953
2017-08-28,-0.9950696873712178
2017-08-29,-1.0624217675173013
2017-08-30,-1.061321254697543
2017-08-31,-1.023694062189134
2017-09-03,-1.0813791838719984
2017-09-04,-0.9375196950208549
2017-09-05,-0.9282552058692404
2017-09-06,-0.9573024748625536
2017-09-07,-1.0092062146942875
2017-09-10,-1.034273321550377
2017-09-11,-0.7780161995746785
2017-09-12,-0.753061992026901
2017-09-13,-0.7682146099598062
2017-09-14,-0.8254036034645592
2017-09-17,-0.8468811928418603
2017-09-18,-0.861982490859352
2017-09-19,-0.9202037107042254
2017-09-20,-0.9824096091908225
2017-09-21,-1.0249216162166628
2017-09-24,-1.0016421740175334
2017-09-25,-0.9262164967798078
2017-09-26,-0.8725325621653591
2017-09-27,-0.8679659424181589
2017-09-28,-0.8466622431736356
2017-10-01,-0.8684288475100215
2017-10-02,-0.8908602729964832
2017-10-03,-0.8820183943176139
2017-10-04,-0.9131125319122837
2017-10-05,-0.8804366560532724
2017-10-08,-0.7548307645604364
2017-10-09,-0.7546086206307887
2017-10-10,-0.7317936215431989
2017-10-11,-0.742113270064702
2017-10-12,-0.7561412694156467
2017-10-15,-0.7246990527311868
2017-10-16,-0.7192204547188465
2017-10-17,-0.7078351853545649
2017-10-18,-0.7498735129675032
2017-10-19,-0.7588970470671824
2017-10-22,-0.693185112764122
2017-10-23,-0.5499360723584162
2017-10-24,-0.5525037804572829
2017-10-25,-0.5715561182204667
2017-10-26,-0.45960909635811903
2017-10-30,-0.40048131596351483
2017-10-31,-0.3459507825853875
2017-11-01,-0.3886485015914817
2017-11-02,-0.4319977099817292
2017-11-03,-0.2730059119043663
2017-11-06,-0.24351319970931481
2017-11-07,-0.2253863847830799
2017-11-08,-0.2578070588260905
2017-11-09,-0.2886514582089368
2017-11-10,-0.35172987901619496
2017-11-13,-0.32439181276567486
2017-11-14,-0.33936905716967036
2017-11-15,-0.3488326657321035
2017-11-16,-0.3488326657321035
2017-11-17,-0.3488326657321035
2017-11-20,-0.3488326657321035
2017-11-21,-0.4354995162241965
2017-11-22,-0.45875506030788865
2017-11-23,-0.4629511981690068
2017-11-24,-0.5571549764486307
2017-11-27,-0.6247945266064222
2017-11-28,-0.6368883954032336
2017-11-29,-0.6583793641656439
2017-11-30,-0.48195556508702886
2017-12-01,-0.4910491738430469
2017-12-04,-0.5283989398015276
2017-12-05,-0.5207189717784365
2017-12-06,-0.5878932273977551
2017-12-07,-0.3861711485194857
2017-12-08,-0.24535431745601355
2017-12-11,-0.3221023384994666
2017-12-12,-0.31141374210060174
2017-12-13,-0.31335668324772503
2017-12-14,-0.30967425588852227
2017-12-15,-0.338198521859829
2017-12-18,-0.2527998028742952
2017-12-19,-0.320148345560587
2017-12-20,-0.31562746205909076
2017-12-21,-0.3709994507766173
2017-12-22,-0.3343933388210148
2017-12-25,-0.3739553889699243
2017-12-26,-0.41737936053110064
2017-12-27,-0.4023527292190079
2017-12-28,-0.4101014807097628
2017-12-29,-0.4373583687298876
2018-01-01,-0.571934947548724
2018-01-02,-0.500790818869075
2018-01-03,-0.3753236564110703
2018-01-04,-0.38572934806782355
2018-01-05,-0.4484197357572371
2018-01-08,-0.5151354693782809
2018-01-09,-0.5510428997360309
2018-01-10,-0.6165698863352218
2018-01-11,-0.646573944648273
2018-01-12,-0.6556663690436886
2018-01-15,-0.6394065256620929
2018-01-16,-0.6355452194094651
2018-01-17,-0.6726804175297594
2018-01-18,-0.7153298938226316
2018-01-19,-0.7582418839360272
2018-01-22,-0.789094251601466
2018-01-23,-0.7498844904410895
2018-01-24,-0.6360303411956506
2018-01-25,-0.3386498711150054
2018-01-26,-0.40106448285528373
2018-01-29,-0.4500461273617791
2018-01-30,-0.4114427292674612
2018-01-31,-0.40833899055680745
2018-02-01,-0.43147650983188457
2018-02-02,-0.3548523396369389
2018-02-05,-0.19792799668701236
2018-02-06,-0.13139208059412777
2018-02-07,-0.1769452193909204
2018-02-08,-0.11676702385041152
2018-02-09,-0.14107966974089434
2018-02-12,-0.1866548182821279
2018-02-13,-0.33099252679576874
2018-02-14,-0.3021212629498265
2018-02-15,-0.07205796383737745
2018-02-16,-0.12810744101361288
2018-02-19,-0.23650470489110934
2018-02-20,-0.29078792090196026
2018-02-21,-0.3315433472328303
2018-02-22,-0.397923852052337
2018-02-23,-0.4054336664983818
2018-02-26,-0.4624415859409394
2018-02-27,-0.48090241674194106
2018-02-28,-0.5054535497871749
2018-03-01,-0.5189839561742041
2018-03-02,-0.5786034556910453
2018-03-05,-0.6613751516285827
2018-03-06,-0.6626464710901727
2018-03-07,-0.6578993684800284
2018-03-08,-0.5708813259381289
2018-03-09,-0.5960304129883103
2018-03-12,-0.6649426930673731
2018-03-13,-0.693739152835802
2018-03-14,-0.706772265162543
2018-03-15,-0.6933174133288548
2018-03-16,-0.6723059345019244
2018-03-19,-0.7235348125832464
2018-03-20,-0.7555472649917265
2018-03-21,-0.7641622676972744
2018-03-22,-0.7280921478422807
2018-03-23,-0.6920076613432635
2018-03-25,-0.7240479306546956
2018-03-26,-0.7600937506124638
2018-03-27,-0.7565333903316062
2018-03-28,-0.8187700781449149
2018-03-29,-0.8661913751031085
2018-04-01,-0.9039293280703423
2018-04-02,-0.9274920506546349
2018-04-03,-0.8216252540103034
2018-04-04,-0.784417796089964
2018-04-05,-0.6935876294934142
2018-04-08,-0.6162820299289746
2018-04-09,-0.4963652525993962
2018-04-10,-0.5209015287488963
2018-04-11,-0.4966620881088793
2018-04-12,-0.4352775301666391
2018-04-15,-0.4149334024743706
2018-04-16,-0.45046954751941615
2018-04-17,-0.4490338712237844
2018-04-18,-0.42141322113365837
2018-04-19,-0.4105755373984026
2018-04-22,-0.3149857972291316
2018-04-23,-0.22511392650487863
2018-04-24,-0.07242713319134292
2018-04-25,-0.07281949096467943
2018-04-26,-0.1594493046827502
2018-04-29,-0.19472185067881068
2018-04-30,-0.17564170343235708
2018-05-01,-0.08980128549325075
2018-05-02,-0.03934122211147134
2018-05-03,-0.05431461904568462
2018-05-06,-0.05414959372757542
2018-05-07,0.021901146796603568
2018-05-08,0.034763381088912186
2018-05-09,0.035599929718289264
2018-05-10,0.05896074294450087
2018-05-13,0.16173307936727296
2018-05-14,0.3019619524531553
2018-05-15,0.3470216193983984
2018-05-16,0.3614657720421432
2018-05-17,0.5014959779846305
2018-05-20,0.45714677275628546
2018-05-21,0.6462465131466769
2018-05-22,0.5667527736694358
2018-05-23,0.5466200771067118
2018-05-24,0.5223720708195625
2018-05-27,0.6483165797229935
2018-05-28,0.9281640733034626
2018-05-29,1.03030620999581
2018-05-30,0.907830309301715
2018-05-31,0.9062809190007072
2018-06-03,0.8333888514835138
2018-06-04,0.8334544958935522
2018-06-05,0.9612428316855738
2018-06-06,1.2305845633296453
2018-06-07,1.5688007310357677
2018-06-10,2.1235039170398493
2018-06-11,2.0092046906947565
2018-06-12,1.7831172867278353
2018-06-13,1.6142739155451238
2018-06-14,1.6444537259376433
2018-06-17,1.6447110671435918
2018-06-18,1.575718265189942
2018-06-19,1.4624138543262815
2018-06-20,1.3912631884479958
2018-06-21,1.2759550612454322
2018-06-24,1.114090250674959
2018-06-25,1.0156184790680178
2018-06-26,1.072639837268524
2018-06-27,1.1074473048025866
2018-06-28,1.0161140789957892
2018-07-01,0.9886892124341128
2018-07-02,0.8973236136308705
2018-07-03,0.7932325622743501
2018-07-04,0.7332286530769427
2018-07-05,0.7078690075865728
2018-07-08,0.8324098351526721
2018-07-09,0.8236600656954091
2018-07-10,0.8133139451697582
2018-07-11,0.8125921766918964
2018-07-12,0.7415796743801903
2018-07-15,0.7589395752883513
2018-07-16,0.6999043069281519
2018-07-17,0.5814075752543097
2018-07-18,0.5676327562966873
2018-07-19,0.6840495028266115
2018-07-22,0.7088507022785768
2018-07-23,0.6841216880491261
2018-07-24,0.7703746569372233
2018-07-25,0.8297342379647978
2018-07-26,0.8178435856737672
2018-07-29,0.8012489299122123
2018-07-30,0.7602942608450627
2018-07-31,0.680429795028033
2018-08-01,0.6395899528863648
2018-08-02,0.5968543526714851
2018-08-05,0.5956744248876376
2018-08-06,0.5083169631034535
2018-08-07,0.43090154624317034
2018-08-08,0.5063643072052809
2018-08-09,0.6615880130681387
2018-08-12,0.8623683290282095
2018-08-13,0.7259732946367613
2018-08-14,0.73704348063916
2018-08-15,0.7125220380270958
2018-08-16,0.7582432614797389
2018-08-19,0.717398655336375
2018-08-20,0.8101600077933496
2018-08-21,1.035869369435292
2018-08-22,1.0703414663724533
2018-08-23,1.1116068285969054
2018-08-26,1.0936508701869596
2018-08-27,1.170643729674769
2018-08-28,1.210297978333191
2018-08-29,1.357075811028783
2018-08-30,1.3415783587597332
2018-09-02,1.5108181395202704
2018-09-03,1.7164684874317366
2018-09-04,1.6260605601865585
2018-09-05,1.5661747933021535
2018-09-06,1.6079350511285788
2018-09-09,1.5323137372635631
2018-09-10,1.74346290631251
2018-09-11,1.6974045968366298
2018-09-12,1.5965112634512826
2018-09-13,1.4846837037576488
2018-09-16,1.4430411758643655
2018-09-17,1.359205992290656
2018-09-18,1.3072745981896547
2018-09-19,1.3364290525552263
2018-09-20,1.3675734912343263
2018-09-23,1.2891288571313528
2018-09-24,1.3566016667374163
2018-09-25,1.3018945177512053
2018-09-26,1.4213972844769682
2018-09-27,1.3609512102057182
2018-09-30,1.299639600455224
2018-10-02,1.1856931560741857
