Date,atr
2010-01-01,
2010-01-04,0.004296999999999884
2010-01-05,0.0036815185185184924
2010-01-06,0.0034108025594150088
2010-01-07,0.003354613191273483
2010-01-08,0.0034647385832067834
2010-01-11,0.003566675065961179
2010-01-12,0.004026287495856971
2010-01-13,0.003928503153214471
2010-01-14,0.0035141566699932454
2010-01-15,0.0033969074888589527
2010-01-18,0.003328879165284872
2010-01-19,0.0030092534713808327
2010-01-20,0.0027494558472737126
2010-01-21,0.0031139245661961105
2010-01-22,0.0030171650062581347
2010-01-25,0.0031870602684945645
2010-01-26,0.002989311703269629
2010-01-27,0.0030550308123569823
2010-01-28,0.0029380575255098054
2010-01-29,0.0032960946305833198
2010-02-01,0.0033514852512295423
2010-02-02,0.004198394262954537
2010-02-03,0.0040019197117165724
2010-02-04,0.0044504585468350295
2010-02-05,0.004606290961281521
2010-02-08,0.0044131458656826
2010-02-09,0.0047590482792291096
2010-02-10,0.004732741982807495
2010-02-11,0.004646813878406366
2010-02-12,0.004701457007578787
2010-02-15,0.004483754020106331
2010-02-16,0.004644095804876148
2010-02-17,0.00440563402020676
2010-02-18,0.004470603593478876
2010-02-19,0.004170873841156249
2010-02-22,0.0039009351712820032
2010-02-23,0.003877577448640398
2010-02-24,0.0038724432652468554
2010-02-25,0.0036970971574606013
2010-02-26,0.0036522777325320153
2010-03-01,0.0038609707020704777
2010-03-02,0.0038579827225628236
2010-03-03,0.0037914497433648524
2010-03-04,0.003918505719421297
2010-03-05,0.0040092000955694145
2010-03-08,0.003892837053659208
2010-03-09,0.0039272631587655826
2010-03-10,0.0036958592248830108
2010-03-11,0.003657202722230421
2010-03-12,0.003644519206313102
2010-03-15,0.0034845435283701563
2010-03-16,0.003410360373995135
2010-03-17,0.0032079931916546003
2010-03-18,0.0030561461602751335
2010-03-19,0.003242877145476033
2010-03-22,0.00304062627331078
2010-03-23,0.002896543933002192
2010-03-24,0.0027742717088747714
2010-03-25,0.0028926752780884584
2010-03-26,0.002871738816331457
2010-03-28,0.0031060213710253446
2010-03-29,0.002909173492880278
2010-03-30,0.0030105408527773634
2010-03-31,0.0029589094861959303
2010-04-01,0.0029146291130009642
2010-04-04,0.003134521935945468
2010-04-05,0.003268059109620594
2010-04-06,0.0032491466581931736
2010-04-07,0.003105414448273056
2010-04-08,0.0031474051033735136
2010-04-11,0.0031931850407964073
2010-04-12,0.0030213442070434423
2010-04-13,0.002981139820051362
2010-04-14,0.0028721056149950907
2010-04-15,0.002971624684097892
2010-04-18,0.0029673504735617012
2010-04-19,0.0034342349295532646
2010-04-20,0.003383776649045268
2010-04-21,0.0031605812990937424
2010-04-22,0.0032229916349397836
2010-04-25,0.003079924290622307
2010-04-26,0.0030147801674457234
2010-04-27,0.003005418773749056
2010-04-28,0.002916212305150126
2010-04-29,0.0031675876935137993
2010-05-02,0.003038897528680006
2010-05-03,0.0032721315845759508
2010-05-04,0.0031905020712792768
2010-05-05,0.003320644029008028
2010-05-06,0.003602884693220285
2010-05-09,0.0034217509586095905
2010-05-10,0.0037482688082125927
2010-05-11,0.0036776063974939288
2010-05-12,0.0035319971619519647
2010-05-13,0.0035195578976756456
2010-05-16,0.004028717880653495
2010-05-17,0.004501237755688028
2010-05-18,0.005309787805620964
2010-05-19,0.006268141330700551
2010-05-20,0.006574745206897276
2010-05-23,0.006694473490548233
2010-05-24,0.006616327496721287
2010-05-25,0.00639391070730011
2010-05-26,0.006663609761298649
2010-05-27,0.006448404940314164
2010-05-30,0.0065590617676653876
2010-05-31,0.006686603263902168
2010-06-01,0.0064901373646432305
2010-06-02,0.006471193101861996
2010-06-03,0.006317777952699975
2010-06-06,0.0066951805236993315
2010-06-07,0.006760112335727128
2010-06-08,0.006555914337101482
2010-06-09,0.006777396482618818
2010-06-10,0.00645851900492
2010-06-13,0.006557285894284243
2010-06-14,0.006481895397127616
2010-06-15,0.006061907394540103
2010-06-16,0.005839595410860954
2010-06-17,0.005549012969157796
2010-06-20,0.00568702964571597
2010-06-21,0.005353345152139589
2010-06-22,0.005609991579597522
2010-06-23,0.0055101248400773436
2010-06-24,0.005596624125067425
2010-06-27,0.0054273503544173245
2010-06-28,0.0054600422877352
2010-06-29,0.005204162697753432
2010-06-30,0.00513278890192936
2010-07-01,0.004877501554384114
2010-07-04,0.00461337824539239
2010-07-05,0.004688069729503727
2010-07-06,0.005066298858575474
2010-07-07,0.005266501540913129
2010-07-08,0.0056450542529313434
2010-07-11,0.005495258377312627
2010-07-12,0.005536312950140447
2010-07-13,0.005250280246820298
2010-07-14,0.004995823108203958
2010-07-15,0.004728398828463361
2010-07-18,0.004793872237529344
2010-07-19,0.004933385116512547
2010-07-20,0.004894070911840552
2010-07-21,0.005160072016764082
2010-07-22,0.004891846809754019
2010-07-25,0.004755997892039956
2010-07-26,0.0047756412645621055
2010-07-27,0.004976813214904355
2010-07-28,0.004966040669906668
2010-07-29,0.004833892942794734
2010-08-01,0.004661255348913833
2010-08-02,0.0044503058336546174
2010-08-03,0.004189995175009248
2010-08-04,0.004411926544531392
2010-08-05,0.004555433264498367
2010-08-08,0.0052111228528587865
2010-08-09,0.005049826935698045
2010-08-10,0.004713765106763636
2010-08-11,0.004762282255132251
2010-08-12,0.004619689654953601
2010-08-15,0.0048267846138389525
2010-08-16,0.004865228804908998
2010-08-17,0.0050119990087750315
2010-08-18,0.005404429718645337
2010-08-19,0.005471113636419053
2010-08-22,0.005906036066812341
2010-08-23,0.0060147482349278475
2010-08-24,0.005816408298357508
2010-08-25,0.005500235127004723
2010-08-26,0.005743219152913228
2010-08-29,0.00602627581545891
2010-08-30,0.005689683705529791
2010-08-31,0.005899849723480119
2010-09-01,0.005784788740015466
2010-09-02,0.005636446341261081
2010-09-05,0.005839414899207642
2010-09-06,0.005582813319072788
2010-09-07,0.005715469758226913
2010-09-08,0.005411578534393643
2010-09-09,0.0051491082165696185
2010-09-12,0.005309457869356509
2010-09-13,0.005342068066808087
2010-09-14,0.005407277574652886
2010-09-15,0.005396543449331174
2010-09-16,0.0053820760440155165
2010-09-19,0.005955928347330836
2010-09-20,0.006144505074647639
2010-09-21,0.0065656836583549705
2010-09-22,0.006541634805745729
2010-09-23,0.006221232073807169
2010-09-26,0.005979786753671818
2010-09-27,0.006357445092522548
2010-09-28,0.006526199118144992
2010-09-29,0.006079541783508893
2010-09-30,0.006099717381087072
2010-10-03,0.006067237552178196
2010-10-04,0.006432720751076402
2010-10-05,0.006294812067517219
2010-10-06,0.006717539943439904
2010-10-07,0.007102144373824081
2010-10-10,0.0068846339875566894
2010-10-11,0.006707588646912666
2010-10-12,0.006452332240261889
2010-10-13,0.0060028083866128885
2010-10-14,0.005999179215224426
2010-10-17,0.00603145213598742
2010-10-18,0.006276705608226358
2010-10-19,0.006283226637528144
2010-10-20,0.006102710415255295
2010-10-21,0.005825588194443643
2010-10-24,0.0060349747858663
2010-10-25,0.005660262244856784
2010-10-26,0.005934529265635034
2010-10-27,0.0062292057848399975
2010-10-28,0.006361191101801676
2010-11-01,0.006175248859472019
2010-11-02,0.0061400167944263735
2010-11-03,0.006083444160803696
2010-11-04,0.0062123410179897014
2010-11-05,0.006141816653704415
2010-11-08,0.006031758312808896
2010-11-09,0.0057074184100951355
2010-11-10,0.005917745680503487
2010-11-11,0.006177406719358492
2010-11-12,0.006275806245046401
2010-11-15,0.006221534367510628
2010-11-16,0.0059870676153821545
2010-11-17,0.0061214199347370424
2010-11-18,0.0062613185167910215
2010-11-19,0.006008224327001681
2010-11-22,0.0057507797227530025
2010-11-23,0.005917795462542548
2010-11-24,0.0062808815124397975
2010-11-25,0.00636281854967689
2010-11-26,0.006572260087566338
2010-11-29,0.006410027220052001
2010-11-30,0.006136525269318051
2010-12-01,0.005910702030854347
2010-12-02,0.005881437599484468
2010-12-03,0.005842906341651508
2010-12-06,0.006452270185065688
2010-12-07,0.006193893739072282
2010-12-08,0.006110472756449906
2010-12-09,0.005909367556739906
2010-12-10,0.00605905559035091
2010-12-13,0.005870694474476398
2010-12-14,0.006367073446159603
2010-12-15,0.006167782483641418
2010-12-16,0.00664536945372012
2010-12-17,0.006678771635897583
2010-12-20,0.0070483593792763635
2010-12-21,0.007769548000633598
2010-12-22,0.007380008854926886
2010-12-23,0.007070865363222683
2010-12-24,0.006804732121340522
2010-12-27,0.006701394112077704
2010-12-28,0.006395008816718024
2010-12-29,0.006094008185456493
2010-12-30,0.006137936172412332
2010-12-31,0.005777226444265713
2011-01-03,0.005605995983279651
2011-01-04,0.005866853414009254
2011-01-05,0.006209721028470705
2011-01-06,0.006664669527886526
2011-01-07,0.006702478847435061
2011-01-10,0.006501801786352708
2011-01-11,0.006744601659375442
2011-01-12,0.007367201542323363
2011-01-13,0.007951044290584419
2011-01-14,0.007757541126576038
2011-01-17,0.007977145332237095
2011-01-18,0.007888349236920932
2011-01-19,0.008478681435249063
2011-01-20,0.008122775617905134
2011-01-21,0.008222577359624063
2011-01-24,0.00824025040538833
2011-01-25,0.008175089662067071
2011-01-26,0.00776401182859821
2011-01-27,0.007598510983524847
2011-01-28,0.0074486887702701
2011-01-31,0.007535711001043748
2011-02-01,0.007990160215636328
2011-02-02,0.007552434485606886
2011-02-03,0.0070974748791628565
2011-02-04,0.007034440959180284
2011-02-07,0.006861195176273593
2011-02-08,0.006764181235054984
2011-02-09,0.00650909686098524
2011-02-10,0.006756661371038548
2011-02-11,0.0071966141304541775
2011-02-14,0.007251213121159526
2011-02-15,0.0068791978980707515
2011-02-16,0.006770469476739593
2011-02-17,0.006550364514039433
2011-02-18,0.006653552763069671
2011-02-21,0.0061924418512847
2011-02-22,0.006610553147736977
2011-02-23,0.006401227922844954
2011-02-24,0.006218211642598176
2011-02-25,0.006061696525235136
2011-02-28,0.005751003916225993
2011-03-01,0.005626860779329035
2011-03-02,0.005469656437920563
2011-03-03,0.005220038120885201
2011-03-04,0.005302963969406049
2011-03-07,0.005101537971562782
2011-03-08,0.005165785259316749
2011-03-09,0.005331014883671453
2011-03-10,0.005219585249110852
2011-03-11,0.004935543445573003
2011-03-14,0.004940861770889742
2011-03-15,0.004926228787253436
2011-03-16,0.004995712445312624
2011-03-17,0.005217375842093371
2011-03-18,0.005076706139076462
2011-03-21,0.005654584272038604
2011-03-22,0.005678113966894473
2011-03-23,0.005786034397836868
2011-03-24,0.005635174797983215
2011-03-25,0.005880519455282459
2011-03-27,0.006141982351345899
2011-03-28,0.006153626469107426
2011-03-29,0.005756224578440923
2011-03-30,0.005402637108539105
2011-03-31,0.005191448743636128
2011-04-03,0.004884916690509402
2011-04-04,0.004810922641185089
2011-04-05,0.00496985673824772
2011-04-06,0.005412652685527161
2011-04-07,0.005234463207985256
2011-04-10,0.0053271444074169385
2011-04-11,0.005444562664032458
2011-04-12,0.00546895104517347
2011-04-13,0.0055270973990906875
2011-04-17,0.005567304727727726
2011-04-18,0.005786425818607675
2011-04-19,0.005684109688705667
2011-04-20,0.006107887568089439
2011-04-21,0.00610168131322582
2011-04-24,0.005866775505135579
2011-04-25,0.005760148683339042
2011-04-26,0.0060018523488172045
2011-04-27,0.00628200575247568
2011-04-28,0.006336576770156444
2011-05-01,0.006010821286571276
2011-05-02,0.0056672626232422444
2011-05-03,0.0060465295787275174
2011-05-04,0.005935134608817716
2011-05-05,0.00580119642247279
2011-05-08,0.00635168239229916
2011-05-09,0.006160062221419676
2011-05-10,0.006484414919891224
2011-05-11,0.006977385282758291
2011-05-12,0.006667857762560025
2011-05-15,0.006411582208090487
2011-05-16,0.006517183478941547
2011-05-17,0.006357956087588069
2011-05-18,0.006220459224188502
2011-05-19,0.006231212136746489
2011-05-22,0.006109339841264274
2011-05-23,0.006376101281174592
2011-05-24,0.006082665475375747
2011-05-25,0.00603911794142025
2011-05-26,0.0066959666598915045
2011-05-29,0.0065412547556132575
2011-05-30,0.0065867365587838084
2011-05-31,0.006551826804584906
2011-06-01,0.006678124889971887
2011-06-02,0.006590758826402349
2011-06-05,0.006989704624516957
2011-06-06,0.006738940008479728
2011-06-07,0.007078158579302962
2011-06-08,0.007123147252209941
2011-06-09,0.007410208162766637
2011-06-12,0.007081336151140158
2011-06-13,0.006803383568915643
2011-06-14,0.006548856171135761
2011-06-15,0.006269795016054448
2011-06-16,0.006170952514907635
2011-06-19,0.005900313049556922
2011-06-20,0.006078933546017231
2011-06-21,0.006119724007016025
2011-06-22,0.005958243720800523
2011-06-23,0.006088154883600537
2011-06-26,0.005897572391914705
2011-06-27,0.005766388649635041
2011-06-28,0.00562921803180392
2011-06-29,0.005283631029532098
2011-06-30,0.005201728813136927
2011-07-03,0.005025319612198522
2011-07-04,0.005070368211327203
2011-07-05,0.004843913339089476
2011-07-06,0.0047802766720116486
2011-07-07,0.0046753283382965135
2011-07-10,0.0044394477427038646
2011-07-11,0.004342987189653564
2011-07-12,0.004582345247535482
2011-07-13,0.004802534872711556
2011-07-14,0.0050447823818036246
2011-07-17,0.005612226497389165
2011-07-18,0.005371853176147044
2011-07-19,0.0050803636635650745
2011-07-20,0.005119051973310432
2011-07-21,0.005595833975216883
2011-07-24,0.005586631548415683
2011-07-25,0.005490443580671699
2011-07-26,0.006216197610623768
2011-07-27,0.006754969209864972
2011-07-28,0.006436614266303176
2011-07-31,0.006383213247281505
2011-08-01,0.006637483729618558
2011-08-02,0.00749952060607443
2011-08-03,0.007478340562783388
2011-08-04,0.007807816236870309
2011-08-07,0.007391757934236686
2011-08-08,0.008971989510362705
2011-08-09,0.00916577597390823
2011-08-10,0.009180934832914794
2011-08-11,0.009369796630563742
2011-08-14,0.009596239728380623
2011-08-15,0.009117579747782
2011-08-16,0.008944824051511854
2011-08-17,0.008671193762118133
2011-08-18,0.008676608493395398
2011-08-21,0.00813706502958143
2011-08-22,0.008063703241754197
2011-08-23,0.00790465301020033
2011-08-24,0.008078677795186034
2011-08-25,0.008091843666958455
2011-08-28,0.007893426262175693
2011-08-29,0.007666967243448857
2011-08-30,0.007226969583202515
2011-08-31,0.006865614612973739
2011-09-01,0.006519570712047044
2011-09-04,0.0062273156611865445
2011-09-05,0.005968078828244638
2011-09-06,0.005882930340512886
2011-09-07,0.0061337924590476696
2011-09-08,0.006270807283401421
2011-09-11,0.007139606763158472
2011-09-12,0.00791699199436145
2011-09-13,0.008492849709049935
2011-09-14,0.008162503301260652
2011-09-15,0.007811895922599181
2011-09-18,0.007827903356699235
2011-09-19,0.007748195974077864
2011-09-20,0.008063610547358022
2011-09-21,0.008150495508261033
2011-09-22,0.008307460114813802
2011-09-25,0.008107641535184253
2011-09-26,0.007873738568385368
2011-09-27,0.007887114384929263
2011-09-28,0.007710891928862901
2011-09-29,0.007710399648229816
2011-10-02,0.007505442530499106
2011-10-03,0.008183839492606305
2011-10-04,0.007773636671705848
2011-10-05,0.007466734052298283
2011-10-06,0.0076108959057055465
2011-10-09,0.00806611762672658
2011-10-10,0.008374180653388977
2011-10-11,0.008374882035289759
2011-10-12,0.009038247604197623
2011-10-13,0.009094444203897791
2011-10-16,0.008638055332190819
2011-10-17,0.008408622808462898
2011-10-18,0.008116078322144121
2011-10-19,0.00773485844199096
2011-10-20,0.007440654267563039
2011-10-23,0.007582178962737111
2011-10-24,0.008543451893970187
2011-10-25,0.00803027675868661
2011-10-26,0.008613756990208984
2011-10-27,0.009308631490908333
2011-10-31,0.009196157812986303
2011-11-01,0.009463146540630123
2011-11-02,0.009003850359156547
2011-11-03,0.009023718190645381
2011-11-04,0.00916959546274214
2011-11-07,0.008801338643974843
2011-11-08,0.008876171597976639
2011-11-09,0.009062587912406887
2011-11-10,0.009505117347234967
2011-11-11,0.009110537536718184
2011-11-14,0.009253356284095453
2011-11-15,0.008941259406660055
2011-11-16,0.008501455163327202
2011-11-17,0.00838827979451812
2011-11-18,0.008070331237766815
2011-11-21,0.007904736149354882
2011-11-22,0.0077185407101152655
2011-11-23,0.008021002087964182
2011-11-24,0.007793644795966733
2011-11-25,0.007521027310540546
2011-11-28,0.007737311074073358
2011-11-29,0.007937931711639526
2011-11-30,0.008678436589379578
2011-12-01,0.008616833975852452
2011-12-02,0.008352845834720131
2011-12-05,0.008191285417954396
2011-12-06,0.007955479316671944
2011-12-07,0.007830159365481067
2011-12-08,0.007922647982232424
2011-12-09,0.007767387412072948
2011-12-12,0.007673216882639161
2011-12-13,0.007613129962450645
2011-12-14,0.007451477822275596
2011-12-15,0.0074065865492558966
2011-12-16,0.007146758938594739
2011-12-19,0.006944204728695111
2011-12-20,0.00684126153378832
2011-12-21,0.007337385709946313
2011-12-22,0.0069675010163787205
2011-12-23,0.006569965229494519
2011-12-26,0.006391467713102049
2011-12-27,0.005985077162166187
2011-12-28,0.00589771450772574
2011-12-29,0.005670377757173903
2011-12-30,0.0058573507745186305
2012-01-02,0.005986182862053024
2012-01-03,0.005875526943334953
2012-01-04,0.005841132161668164
2012-01-05,0.005623694150120434
2012-01-06,0.0054817874251118235
2012-01-09,0.0053754454661752585
2012-01-10,0.005124699361448455
2012-01-11,0.004860220835630711
2012-01-12,0.004891133633085659
2012-01-13,0.004799766945008109
2012-01-16,0.004518212163221816
2012-01-17,0.004420339865848825
2012-01-18,0.00444967273257391
2012-01-19,0.00432941039453292
2012-01-20,0.004475452509209132
2012-01-23,0.004821848758551338
2012-01-24,0.0048207167043691065
2012-01-25,0.004683594082628459
2012-01-26,0.0050771230767264345
2012-01-27,0.004837328571245971
2012-01-30,0.004780090816156968
2012-01-31,0.004718370043574314
2012-02-01,0.004623272183319008
2012-02-02,0.004870752741653356
2012-02-03,0.004748627545820971
2012-02-06,0.004556797006833753
2012-02-07,0.00481566864920277
2012-02-08,0.005106978031402569
2012-02-09,0.004916908172016668
2012-02-10,0.0050419147311583324
2012-02-13,0.004897349393218449
2012-02-14,0.00466903872227427
2012-02-15,0.004632250242111822
2012-02-16,0.004549446653389537
2012-02-17,0.00452848617814743
2012-02-20,0.004423808593994045
2012-02-21,0.004708036551565911
2012-02-22,0.0046587482264540655
2012-02-23,0.00456212335313592
2012-02-24,0.0049038288279119316
2012-02-27,0.00478091248306109
2012-02-28,0.0046702044485567255
2012-02-29,0.004595189845088385
2012-03-01,0.005081676284724931
2012-03-02,0.004973413692958862
2012-03-05,0.00484131271489038
2012-03-06,0.0047512903781125
2012-03-07,0.004936126779675892
2012-03-08,0.004944617723984744
2012-03-09,0.004890716457985843
2012-03-12,0.00542723671098684
2012-03-13,0.00541636266020206
2012-03-14,0.005574408184473334
2012-03-15,0.005524664742725234
2012-03-16,0.0059550458325305705
2012-03-19,0.005934971130206954
2012-03-20,0.006115544620906466
2012-03-21,0.006503362862270284
2012-03-22,0.0063436940863938465
2012-03-23,0.006321430223079987
2012-03-25,0.006287113778574273
2012-03-26,0.006115391365818974
2012-03-27,0.006335863411117614
2012-03-28,0.006395301738894916
2012-03-29,0.006061208757545271
2012-04-01,0.00576697956057776
2012-04-02,0.0061044095919650645
2012-04-03,0.006448166049681851
2012-04-04,0.006250582760418859
2012-04-05,0.0059082554203889375
2012-04-08,0.005853665747504016
2012-04-09,0.005730332479825174
2012-04-10,0.005789094445551949
2012-04-11,0.006146516270869671
2012-04-12,0.005861765108664705
2012-04-15,0.005767067600902931
2012-04-16,0.005739705629409868
2012-04-17,0.006006583798737738
2012-04-18,0.005813613527399336
2012-04-19,0.005471212561156527
2012-04-22,0.005360483092502478
2012-04-23,0.005967734300180892
2012-04-24,0.005900110421596555
2012-04-25,0.005529459677196794
2012-04-26,0.0055483554145398855
2012-04-29,0.005700401456358461
2012-04-30,0.0057155156380471524
2012-05-01,0.00609147880675806
2012-05-02,0.006044658891989627
2012-05-03,0.005837254685418927
2012-05-06,0.005743450779317573
2012-05-07,0.005589704295080612
2012-05-08,0.005575511131146293
2012-05-09,0.005311260336064413
2012-05-10,0.005196170312059815
2012-05-13,0.005383443861198407
2012-05-14,0.005172269299684232
2012-05-15,0.0050242500639925
2012-05-16,0.005082017916564463
2012-05-17,0.0049202309225241485
2012-05-20,0.0047885715709152805
2012-05-21,0.004751030744421341
2012-05-22,0.0051821714055340935
2012-05-23,0.005176159162281662
2012-05-24,0.005221290650690117
2012-05-27,0.005456984175640824
2012-05-28,0.005297556734523624
2012-05-29,0.005253374110629071
2012-05-30,0.005201775959869856
2012-05-31,0.005163506248450577
2012-06-03,0.005261898659275545
2012-06-04,0.0055387630407558695
2012-06-05,0.0057441371092733185
2012-06-06,0.005885770172896656
2012-06-07,0.005625358017689737
2012-06-10,0.005408403873569028
2012-06-11,0.005175803596885505
2012-06-12,0.005250817625679402
2012-06-13,0.005016402080988024
2012-06-14,0.005033944789488886
2012-06-17,0.005334163018811104
2012-06-18,0.005296651374610315
2012-06-19,0.00518453341928101
2012-06-20,0.004900566746475225
2012-06-21,0.005185097693155559
2012-06-24,0.005130447857930168
2012-06-25,0.004839058725220864
2012-06-26,0.004668340244847955
2012-06-27,0.004832887370215957
2012-06-28,0.005153038272343385
2012-07-01,0.0052620355386045784
2012-07-02,0.004908318714418539
2012-07-03,0.004777010234817225
2012-07-04,0.004562938075187431
2012-07-05,0.004428728212674036
2012-07-08,0.0044611761974830315
2012-07-09,0.00427244932623426
2012-07-10,0.00437113151721753
2012-07-11,0.004507407837416273
2012-07-12,0.005026521563315118
2012-07-15,0.005017912880221186
2012-07-16,0.00512770481734825
2012-07-17,0.005279083044680502
2012-07-18,0.00543950568434618
2012-07-19,0.005325969564035733
2012-07-22,0.00530661459517604
2012-07-23,0.005077570695520608
2012-07-24,0.004952601360126279
2012-07-25,0.00490598697726013
2012-07-26,0.004889630764598695
2012-07-29,0.004772157138555926
2012-07-30,0.004667288771516199
2012-07-31,0.004552482430693602
2012-08-01,0.004667305114215484
2012-08-02,0.004542926177485822
2012-08-05,0.004516288593379693
2012-08-06,0.00421291083670972
2012-08-07,0.004308917205516155
2012-08-08,0.00406906597655071
2012-08-09,0.004054632692511379
2012-08-12,0.0040528732144748504
2012-08-13,0.004095667984869496
2012-08-14,0.00415097741452167
2012-08-15,0.004078836170627253
2012-08-16,0.004322919301296732
2012-08-19,0.0044241393512040985
2012-08-20,0.004380415111832372
2012-08-21,0.004269028318130056
2012-08-22,0.004387526295406492
2012-08-23,0.004690560131448879
2012-08-26,0.00489637726491681
2012-08-27,0.00523113603170846
2012-08-28,0.004972483458015006
2012-08-29,0.004763020353871064
2012-08-30,0.004644804614308853
2012-09-02,0.005003961427572493
2012-09-03,0.004943035611317316
2012-09-04,0.004746675924794637
2012-09-05,0.004537413358737874
2012-09-06,0.004621383833113746
2012-09-09,0.004444356416462749
2012-09-10,0.004462330958143984
2012-09-11,0.004909021603990839
2012-09-12,0.005054091489420061
2012-09-13,0.004809513525890042
2012-09-16,0.004621333988326455
2012-09-17,0.004815238703445978
2012-09-18,0.004734578796056986
2012-09-19,0.004535751739195774
2012-09-20,0.00439255518639608
2012-09-23,0.004202158387367792
2012-09-24,0.003950789931127234
2012-09-25,0.003852090650332435
2012-09-26,0.004167084175308689
2012-09-27,0.004124292448500926
2012-09-30,0.004259842987893715
2012-10-01,0.004473139917329886
2012-10-02,0.004805915637520602
2012-10-03,0.004800350234840565
2012-10-04,0.005075539503780526
2012-10-07,0.005371858110653339
2012-10-08,0.0052844396741780954
2012-10-09,0.0053294796974511045
2012-10-10,0.005489874004776018
2012-10-11,0.00520802586157773
2012-10-14,0.004966024014322189
2012-10-15,0.005287379441870609
2012-10-16,0.005589138053165578
2012-10-17,0.005335128192225191
2012-10-18,0.005701119035637677
2012-10-21,0.005650896247377847
2012-10-22,0.005494403658279431
2012-10-23,0.005333231968402334
2012-10-24,0.005702858256373593
2012-10-25,0.005583154095204051
2012-10-29,0.005533928802689457
2012-10-30,0.005314148173925919
2012-10-31,0.0050748518757883585
2012-11-01,0.004775005313232032
2012-11-02,0.004638862076572602
2012-11-05,0.004788657642531692
2012-11-06,0.004970682096636581
2012-11-07,0.004849061946876829
2012-11-08,0.004715771807814211
2012-11-09,0.004734930964398918
2012-11-12,0.004554793038370409
2012-11-13,0.004506807821343956
2012-11-14,0.00439260726267654
2012-11-15,0.004867206743913943
2012-11-16,0.005052049119348661
2012-11-19,0.004916045610823767
2012-11-20,0.004713828067193507
2012-11-21,0.0046685546338225475
2012-11-22,0.004496229302835226
2012-11-23,0.004413712924061268
2012-11-26,0.004341947715199748
2012-11-27,0.004085880021256917
2012-11-28,0.003849674305452842
2012-11-29,0.0037055547122062144
2012-11-30,0.003721372232762914
2012-12-03,0.003593345644708425
2012-12-05,0.003559463812943528
2012-12-06,0.0035828592548761314
2012-12-07,0.003529012165242104
2012-12-10,0.003515939867724816
2012-12-11,0.0034505870200301756
2012-12-12,0.0035770450900280146
2012-12-13,0.0034107561550260177
2012-12-14,0.0032964878582384454
2012-12-17,0.003320310154078558
2012-12-18,0.0033941451430729284
2012-12-19,0.003294706204282009
2012-12-20,0.003185441475404724
2012-12-21,0.003022338512875828
2012-12-24,0.0030979571905275388
2012-12-25,0.003183888819775564
2012-12-26,0.0029810396183630322
2012-12-27,0.002832679645622801
2012-12-28,0.0028433453852211754
2012-12-31,0.002807320714848241
2013-01-01,0.0028039406637876433
2013-01-02,0.0028648020449456605
2013-01-03,0.002905244756020968
2013-01-04,0.002919798702019472
2013-01-07,0.002867813080446651
2013-01-08,0.002694612146129031
2013-01-09,0.002671139849976948
2013-01-10,0.002864272717835731
2013-01-11,0.0028010389522760484
2013-01-14,0.00274617902711347
2013-01-15,0.0026976662394625106
2013-01-16,0.0026132615080723363
2013-01-17,0.0026163142574957402
2013-01-18,0.00262057752481745
2013-01-21,0.002674464844473356
2013-01-22,0.0029094316412966777
2013-01-23,0.0033598293812040565
2013-01-24,0.003556127282546624
2013-01-25,0.0036031181909361625
2013-01-28,0.0036318240344407247
2013-01-29,0.003458550889123533
2013-01-30,0.003412797254186121
2013-01-31,0.003635883164601405
2013-02-01,0.003917320081415592
2013-02-04,0.003728440075600199
2013-02-05,0.0037069086416287606
2013-02-06,0.0043854151672266944
2013-02-07,0.004598956940996227
2013-02-08,0.004572888588067929
2013-02-11,0.004965325117491651
2013-02-12,0.004922730466242252
2013-02-13,0.004984678290082104
2013-02-14,0.004700486983647673
2013-02-15,0.004413666484815684
2013-02-18,0.00422897602161456
2013-02-19,0.0045244063057849615
2013-02-20,0.004562662998228897
2013-02-21,0.004501329926926828
2013-02-22,0.0049785920750034796
2013-02-25,0.005213549783931814
2013-02-26,0.00495579622793669
2013-02-27,0.005076310783084082
2013-02-28,0.004874288584292364
2013-03-01,0.0049499108282714775
2013-03-04,0.005321988626252089
2013-03-05,0.0052359894386626435
2013-03-06,0.005746347335901025
2013-03-07,0.005619465383336652
2013-03-08,0.005484360713098301
2013-03-11,0.0055279778050198475
2013-03-12,0.005749336533232728
2013-03-13,0.005601812495144677
2013-03-14,0.005655254459777206
2013-03-15,0.005351093426935968
2013-03-18,0.005016443896440529
2013-03-19,0.005020840760980501
2013-03-20,0.004810780706624741
2013-03-21,0.004605867799008696
2013-03-22,0.00466080581336521
2013-03-25,0.004460676826696271
2013-03-26,0.00422491419621797
2013-03-27,0.004394920325059541
2013-03-28,0.004560211730412436
2013-03-29,0.004433839463954404
2013-03-31,0.00416270807367194
2013-04-01,0.00401708606840966
2013-04-02,0.0038550084920946745
2013-04-03,0.0038602935998022026
2013-04-04,0.0038317011998163166
2013-04-07,0.003641365399829431
2013-04-08,0.00415312501412732
2013-04-09,0.004589330370261094
2013-04-10,0.004358378200956724
2013-04-11,0.004453136900888382
2013-04-14,0.0044369842651106545
2013-04-15,0.004800913960459884
2013-04-16,0.0047046343918556175
2013-04-17,0.0047789462210087955
2013-04-18,0.004604092919508174
2013-04-21,0.004511871996686171
2013-04-22,0.004359809711208589
2013-04-23,0.004226037588979397
2013-04-24,0.003964249189766569
2013-04-25,0.004101231390497541
2013-04-28,0.004183286291176287
2013-04-29,0.003996551556092261
2013-04-30,0.004365012159228529
2013-05-01,0.004963368433569335
2013-05-02,0.004921199259742967
2013-05-05,0.004880470741189898
2013-05-06,0.005586579973962052
2013-05-07,0.00587475283296477
2013-05-08,0.005726699059181577
2013-05-09,0.006107863412097183
2013-05-12,0.006126658882661678
2013-05-13,0.006044468962471549
2013-05-14,0.0057162211794378704
2013-05-15,0.005911348238049452
2013-05-16,0.005800609078188781
2013-05-19,0.005764065572603875
2013-05-20,0.005600560888846464
2013-05-21,0.005556306539643139
2013-05-22,0.005858213215382914
2013-05-23,0.005693055128569844
2013-05-26,0.005679694047957713
2013-05-27,0.0057328587588178674
2013-05-28,0.005665511704616597
2013-05-29,0.0054257608685725385
2013-05-30,0.005452492235103073
2013-06-02,0.005741528504024276
2013-06-03,0.005802133610879677
2013-06-04,0.006504481210102555
2013-06-05,0.0074537325522380776
2013-06-06,0.00785096594136393
2013-06-09,0.008833896945552226
2013-06-10,0.008625118592298503
2013-06-11,0.008493110121420034
2013-06-12,0.008825387969890037
2013-06-13,0.008980503114897885
2013-06-16,0.008956467178119472
2013-06-17,0.008942933808253792
2013-06-18,0.008719438536235672
2013-06-19,0.009349121497933115
2013-06-20,0.0093370413909379
2013-06-23,0.009844967005870916
2013-06-24,0.009438826505451567
2013-06-25,0.009124053183633601
2013-06-26,0.008539477956231197
2013-06-27,0.008511229530786106
2013-06-30,0.008710141707158532
2013-07-01,0.008887560156647212
2013-07-02,0.00926009157402956
2013-07-03,0.009096656461598874
2013-07-04,0.00915225242862753
2013-07-07,0.008935805826582705
2013-07-08,0.008943391124683947
2013-07-09,0.008711934615777952
2013-07-10,0.009026153571793804
2013-07-11,0.010131999745237109
2013-07-14,0.010315356906291604
2013-07-15,0.010705688555842212
2013-07-16,0.010910282230424902
2013-07-17,0.010490904928251703
2013-07-18,0.010411840290519444
2013-07-21,0.010006351698339485
2013-07-22,0.009339326577029522
2013-07-23,0.009349946107241693
2013-07-24,0.009632307099581575
2013-07-25,0.00975107087818288
2013-07-28,0.009437137244026953
2013-07-29,0.010100984583739326
2013-07-30,0.010726842827757951
2013-07-31,0.010934282625775253
2013-08-01,0.01066019100964845
2013-08-04,0.01022353450895928
2013-08-05,0.009976567758319335
2013-08-06,0.010151027204153664
2013-08-07,0.010259025260999838
2013-08-08,0.010120666313785559
2013-08-11,0.010118261577086587
2013-08-12,0.009779528607294674
2013-08-13,0.009421919421059334
2013-08-14,0.009146996605269376
2013-08-15,0.008742568276321552
2013-08-18,0.008939670542298593
2013-08-19,0.009134622646420109
2013-08-20,0.008642721028818665
2013-08-21,0.008371812383903048
2013-08-22,0.008530111499338555
2013-08-25,0.008175103535100087
2013-08-26,0.008079024711164359
2013-08-27,0.008322380088938342
2013-08-28,0.007881710082585593
2013-08-29,0.00738415936240091
2013-09-01,0.007343433693657995
2013-09-02,0.007627902715539563
2013-09-03,0.007996981093001015
2013-09-04,0.008028911014929523
2013-09-05,0.007882917371005977
2013-09-08,0.007519280415934123
2013-09-09,0.007305188957653123
2013-09-10,0.007143246889249328
2013-09-11,0.007277586397160084
2013-09-12,0.0073150445116486554
2013-09-15,0.007421469903673748
2013-09-16,0.006993150624839901
2013-09-17,0.006628925580208476
2013-09-18,0.006640573753050729
2013-09-19,0.006510389913547089
2013-09-22,0.006229076348293734
2013-09-23,0.005968356609129904
2013-09-24,0.005921973994192043
2013-09-25,0.0055825472803211745
2013-09-26,0.005595365331726816
2013-09-29,0.005698267808032038
2013-09-30,0.006121748678886897
2013-10-01,0.006353266630394985
2013-10-02,0.0060505332996524845
2013-10-03,0.005960923778248746
2013-10-06,0.005668357794088129
2013-10-08,0.0058246179516532525
2013-10-09,0.0056689309551066
2013-10-10,0.005428435886884702
2013-10-13,0.005460261894964361
2013-10-14,0.00559710033103834
2013-10-15,0.005382521735964178
2013-10-16,0.00537184161196674
2013-10-17,0.005609781496826268
2013-10-20,0.0055711542470529545
2013-10-21,0.005520714657977736
2013-10-22,0.005712020753836458
2013-10-23,0.005601447842848135
2013-10-24,0.005276844425501846
2013-10-28,0.005163855537966
2013-10-29,0.005549865856682716
2013-10-30,0.0055867325812053725
2013-10-31,0.005225751682547846
2013-11-01,0.005372840848080142
2013-11-04,0.005120137930360134
2013-11-05,0.005281628078191551
2013-11-06,0.005060583215463587
2013-11-07,0.005107898700073325
2013-11-08,0.00549262022149666
2013-11-11,0.005668290205675467
2013-11-12,0.005528626619555781
2013-11-13,0.005573653289587512
2013-11-14,0.005429820911759817
2013-11-15,0.005240333703776975
2013-11-18,0.005308238439221472
2013-11-19,0.005321007122134234
2013-11-20,0.005503292327696068
2013-11-21,0.006260271447146352
2013-11-22,0.0063639663437787585
2013-11-25,0.006281468747794563
2013-11-26,0.006328578122952093
2013-11-27,0.006332822542741225
2013-11-28,0.006217549503973996
2013-11-29,0.005970795967975858
2013-12-02,0.006337524827406157
2013-12-03,0.00608963019687715
2013-12-04,0.006156299468528782
2013-12-05,0.0063170637922053095
2013-12-06,0.006158202092762058
2013-12-09,0.006157687657564778
2013-12-10,0.00595528139631015
2013-12-11,0.005955832725145135
2013-12-12,0.006960844673349061
2013-12-13,0.0070238557681098455
2013-12-16,0.00680629464181628
2013-12-17,0.00667270216740082
2013-12-18,0.006243294869729334
2013-12-19,0.0059532738076058045
2013-12-20,0.005808039964205376
2013-12-23,0.005699108538190709
2013-12-24,0.005455815071177094
2013-12-25,0.005282828280378729
2013-12-26,0.005199911974637388
2013-12-27,0.004987918262163298
2013-12-30,0.004882995529151621
2013-12-31,0.004721710134212218
2014-01-01,0.004567230838911352
2014-01-02,0.00450985720756054
2014-01-03,0.0047772959784490795
2014-01-06,0.004726560551417006
2014-01-07,0.004698020512030083
2014-01-08,0.00496116190402795
2014-01-09,0.004869078910883089
2014-01-10,0.005456930417248581
2014-01-13,0.006618506816016543
2014-01-14,0.006301113472015364
2014-01-15,0.006403391081157123
2014-01-16,0.007288291718217331
2014-01-17,0.007626128024058948
2014-01-20,0.007327118879483309
2014-01-21,0.007175110388091648
2014-01-22,0.007318959646085111
2014-01-23,0.007941105385650472
2014-01-24,0.008613669286675434
2014-01-27,0.008908264337627198
2014-01-28,0.009360174027796675
2014-01-29,0.009358875882954061
2014-01-30,0.008968527605600204
2014-01-31,0.008718204205200199
2014-02-03,0.008686403904828745
2014-02-04,0.008921803625912402
2014-02-05,0.009355889081204372
2014-02-06,0.00901932557540406
2014-02-07,0.008532230891446625
2014-02-10,0.008317428684914724
2014-02-11,0.008412040921706533
2014-02-12,0.00824475228444179
2014-02-13,0.008260127121267379
2014-02-14,0.008070475184033985
2014-02-17,0.007987655528031557
2014-02-18,0.007845322990315023
2014-02-19,0.007797871348149664
2014-02-20,0.007869880537567537
2014-02-21,0.007668531927741278
2014-02-24,0.007444779647188336
2014-02-25,0.0070473668152463064
2014-02-26,0.0068175548998715705
2014-02-27,0.006672443835595019
2014-02-28,0.006479269275909658
2014-03-03,0.006714750041916119
2014-03-04,0.006717839324636391
2014-03-05,0.006572636515733795
2014-03-06,0.006281876764609945
2014-03-07,0.006999314138566375
2014-03-10,0.006831434557240214
2014-03-11,0.006514403517437332
2014-03-12,0.006565374694763229
2014-03-13,0.006764276502280139
2014-03-14,0.0063801138949744225
2014-03-17,0.006241034331047687
2014-03-18,0.006200674735972837
2014-03-19,0.006752483683403341
2014-03-20,0.006387091991731666
2014-03-21,0.006093156849465122
2014-03-24,0.006150288503074758
2014-03-25,0.005843125038569427
2014-03-26,0.005880616107243035
2014-03-27,0.005559714956725687
2014-03-28,0.0052620210312452845
2014-03-30,0.005006662386156335
2014-03-31,0.004742472215716603
2014-04-01,0.004774724200308284
2014-04-02,0.004595315328857686
2014-04-03,0.00434857851965357
2014-04-06,0.004087751482535454
2014-04-07,0.0040026263766400495
2014-04-08,0.004108010206880037
2014-04-09,0.004265652334960023
2014-04-10,0.00459624859674859
2014-04-13,0.004553587982695125
2014-04-14,0.004395903126788328
2014-04-15,0.004307981474874866
2014-04-16,0.004380411369526664
2014-04-17,0.004401810557417618
2014-04-20,0.004214395517602062
2014-04-21,0.0041187958377733504
2014-04-22,0.004142096135075256
2014-04-23,0.004683874982569884
2014-04-24,0.004533455340957748
2014-04-27,0.0045232085308893446
2014-04-28,0.004649550778682961
2014-04-29,0.004619511437348465
2014-04-30,0.0046201177632521516
2014-05-01,0.004695537923019856
2014-05-04,0.004393070928518442
2014-05-05,0.0042124230050528295
2014-05-06,0.003967107076120481
2014-05-07,0.00383095657068331
2014-05-08,0.003987888244205941
2014-05-11,0.004099253369619801
2014-05-12,0.003909163843218389
2014-05-13,0.003926723568702784
2014-05-14,0.00402631474236688
2014-05-15,0.004002220832197821
2014-05-18,0.003828776487040831
2014-05-19,0.004129435309395057
2014-05-20,0.004398618501581122
2014-05-21,0.0042827886086110436
2014-05-22,0.004195446565138831
2014-05-25,0.0040037718104860695
2014-05-26,0.003745502395451354
2014-05-27,0.0037079665100619554
2014-05-28,0.0036571831879146826
2014-05-29,0.0038448843887779263
2014-06-01,0.003723964075293784
2014-06-02,0.00368553806991565
2014-06-03,0.0039214996363502565
2014-06-04,0.004157249662325242
2014-06-05,0.004290874686444863
2014-06-08,0.004186240780270229
2014-06-09,0.004019937867393779
2014-06-10,0.003923442305437066
2014-06-11,0.0038624821407629993
2014-06-12,0.0037534477021370634
2014-06-15,0.003713272866270126
2014-06-16,0.003796824804393686
2014-06-17,0.0038623373183655735
2014-06-18,0.003940384652768036
2014-06-19,0.004087214320427454
2014-06-22,0.004348341868968354
2014-06-23,0.004197317449756334
2014-06-24,0.0042428662033451615
2014-06-25,0.004076947188820502
2014-06-26,0.003943522389619046
2014-06-29,0.0037961993617891157
2014-06-30,0.004005685121661305
2014-07-01,0.0038787790415426592
2014-07-02,0.00450758053857534
2014-07-03,0.00500096764296282
2014-07-06,0.004847612811322628
2014-07-07,0.004992997610513868
2014-07-08,0.004778783495477167
2014-07-09,0.004798798960085944
2014-07-10,0.004852599034365519
2014-07-13,0.005136699103339411
2014-07-14,0.004813577738815165
2014-07-15,0.004499893614614091
2014-07-16,0.004246544070713099
2014-07-17,0.004074576637090729
2014-07-20,0.003924106877298516
2014-07-21,0.0037714563860629068
2014-07-22,0.003988209501344151
2014-07-23,0.004161694536962434
2014-07-24,0.004228216355750832
2014-07-27,0.004255415187482906
2014-07-28,0.004044528388376988
2014-07-29,0.003920490646350058
2014-07-30,0.003955455600182198
2014-07-31,0.003817065914454888
2014-08-03,0.0038217040634224075
2014-08-04,0.003788582344606519
2014-08-05,0.0037336836057060394
2014-08-06,0.003977134776727035
2014-08-07,0.0041986251498179715
2014-08-10,0.004160937639116702
2014-08-11,0.0042152992363226425
2014-08-12,0.004226563576585308
2014-08-13,0.004104809035400637
2014-08-14,0.003942894104300608
2014-08-17,0.003766544525421991
2014-08-18,0.003675148487891858
2014-08-19,0.003647637881613869
2014-08-20,0.003525235175784314
2014-08-21,0.0033195040917997206
2014-08-24,0.00322568237095688
2014-08-25,0.00311441934445996
2014-08-26,0.0030111036769985343
2014-08-27,0.0032188105572129254
2014-08-28,0.0031228955174120174
2014-08-31,0.0029677601233111376
2014-09-01,0.0028347058287889228
2014-09-02,0.0027607982695897156
2014-09-03,0.0028238126789047403
2014-09-04,0.0027822546304115503
2014-09-07,0.0028763078710964452
2014-09-08,0.0030605001660181266
2014-09-09,0.003913821582731102
2014-09-10,0.00407462004110745
2014-09-11,0.0038950043238854897
2014-09-14,0.004112861157893683
2014-09-15,0.004100299646615568
2014-09-16,0.004394135386143024
2014-09-17,0.005086554287132816
2014-09-18,0.005208943266623323
2014-09-21,0.005327018747578794
2014-09-22,0.00511116026560888
2014-09-23,0.005075220246636821
2014-09-24,0.004908990229019903
2014-09-25,0.004851133784089907
2014-09-28,0.004982267085226342
2014-09-29,0.004682533721995877
2014-09-30,0.00463092417042474
2014-10-01,0.004501643872537248
2014-10-02,0.004703812167356016
2014-10-05,0.004774682726830597
2014-10-06,0.0049954196749141195
2014-10-07,0.005086175412420253
2014-10-08,0.005045448597247384
2014-10-09,0.005140630840301149
2014-10-12,0.005396800065993927
2014-10-13,0.006121600061280083
2014-10-14,0.0065205571997600876
2014-10-15,0.006457803114062933
2014-10-16,0.00642174574877273
2014-10-19,0.006079906766717541
2014-10-20,0.005799841997666282
2014-10-21,0.005723210426404391
2014-10-22,0.0054579096816612235
2014-10-23,0.005518201847256853
2014-10-27,0.005589758858167084
2014-10-28,0.005336276082583718
2014-10-29,0.005041899219542021
2014-10-30,0.005184834989574735
2014-10-31,0.005663918204605104
2014-11-03,0.00552235261856188
2014-11-04,0.005415684574378893
2014-11-05,0.0057174928190661155
2014-11-06,0.006611386189132816
2014-11-07,0.006225144318480478
2014-11-10,0.005985776867160439
2014-11-11,0.005725221376648976
2014-11-12,0.0057245627068883385
2014-11-13,0.005547522513539177
2014-11-14,0.005229413762572088
2014-11-17,0.005283884208102646
2014-11-18,0.005233321050381031
2014-11-19,0.00522279811821096
2014-11-20,0.005705169681195891
2014-11-21,0.00539244327539619
2014-11-24,0.005252768755725035
2014-11-25,0.005702213844601813
2014-11-26,0.006252341427130246
2014-11-27,0.006169102753763796
2014-11-28,0.006533809699923528
2014-12-01,0.006212109007071846
2014-12-02,0.00596624407799529
2014-12-03,0.005678512358138491
2014-12-04,0.006142404332557162
2014-12-05,0.005775661165945937
2014-12-08,0.005909542511235508
2014-12-09,0.005863575189004399
2014-12-10,0.005609176961218364
2014-12-11,0.005852092892559907
2014-12-12,0.0055764434002341925
2014-12-15,0.005462126014503178
2014-12-16,0.005863831299181525
2014-12-17,0.005969486206382851
2014-12-18,0.0063498800487840805
2014-12-19,0.006058317188156634
2014-12-22,0.005691794531859724
2014-12-23,0.005455166351012603
2014-12-24,0.0053423687545117015
2014-12-25,0.0050514852720465716
2014-12-26,0.00473895060975754
2014-12-29,0.004763096994774866
2014-12-30,0.004931590066576674
2014-12-31,0.004833905061821199
2015-01-01,0.004547840414548262
2015-01-02,0.004336351813509093
2015-01-05,0.004294898112544156
2015-01-06,0.004397548247362428
2015-01-07,0.00425800908683654
2015-01-08,0.004093151294919645
2015-01-09,0.004750211916711097
2015-01-12,0.005637839636946019
2015-01-13,0.005535136805735596
2015-01-14,0.0055531270338973465
2015-01-15,0.005289475102904673
2015-01-16,0.005934941166982915
2015-01-19,0.005620088226484139
2015-01-20,0.005647367638878125
2015-01-21,0.006881698521815406
2015-01-22,0.007304720055971443
2015-01-23,0.008086597194830628
2015-01-26,0.00827126882377129
2015-01-27,0.008174392479216199
2015-01-28,0.00800707873070076
2015-01-29,0.007961144535650716
2015-01-30,0.00781884849738995
2015-02-02,0.008010716461862088
2015-02-03,0.00908787957172908
2015-02-04,0.009113316745177014
2015-02-05,0.00902315126337865
2015-02-06,0.008645997601708743
2015-02-09,0.008326069201586692
2015-02-10,0.008062921401473359
2015-02-11,0.007995284158510977
2015-02-12,0.008698906718617345
2015-02-13,0.0085267705244304
2015-02-16,0.008074358344113942
2015-02-17,0.007555332748105805
2015-02-18,0.007158951837526823
2015-02-19,0.007186026706274919
2015-02-20,0.0071260247986838585
2015-02-23,0.007315308741635019
2015-02-24,0.007038715260089659
2015-02-25,0.00669273559865468
2015-02-26,0.006309040198750767
2015-02-27,0.0063518944702685735
2015-03-02,0.006096830579535098
2015-03-03,0.005791699823854025
2015-03-04,0.005802506979293026
2015-03-05,0.005806685052200676
2015-03-06,0.005759207548472055
2015-03-09,0.005446835580724058
2015-03-10,0.005607418753529475
2015-03-11,0.005455317413991662
2015-03-12,0.0055613661701351185
2015-03-13,0.005817554300839757
2015-03-16,0.005539943279351212
2015-03-17,0.005282161616540411
2015-03-18,0.005051935786787527
2015-03-19,0.004965297516302706
2015-03-20,0.004851204836566793
2015-03-23,0.00517861877681202
2015-03-24,0.005341431721325461
2015-03-25,0.005138686598373645
2015-03-26,0.0052054946984898065
2015-03-27,0.0052271022200262455
2015-03-29,0.0054149520614529345
2015-03-30,0.0053968840570634315
2015-03-31,0.0054706066244160365
2015-04-01,0.005985920436957745
2015-04-02,0.006066854691460763
2015-04-05,0.005796507927784986
2015-04-06,0.005865185932943204
2015-04-07,0.006273101223447263
2015-04-08,0.0067113797074867445
2015-04-09,0.006741995442666257
2015-04-12,0.00725563862533295
2015-04-13,0.007600521580666309
2015-04-14,0.0078396271820473
2015-04-15,0.007586939526186779
2015-04-16,0.00744265813145915
2015-04-19,0.007259039693497782
2015-04-20,0.007372322572533646
2015-04-21,0.00753165667449553
2015-04-22,0.007104752626317276
2015-04-23,0.006811270295866034
2015-04-26,0.006740679560447041
2015-04-27,0.00701391673470082
2015-04-28,0.007519208396507912
2015-04-29,0.007592979225328776
2015-04-30,0.007608052137805287
2015-05-03,0.007436048413676337
2015-05-04,0.0073024020984137445
2015-05-05,0.007544516234241337
2015-05-06,0.007387122217509807
2015-05-07,0.007097613487687666
2015-05-10,0.006624355381424255
2015-05-11,0.006388972854179652
2015-05-12,0.006926903364595378
2015-05-13,0.007418481695695706
2015-05-14,0.007221018717431738
2015-05-17,0.006985017380472324
2015-05-18,0.006830158996152878
2015-05-19,0.006804719067856251
2015-05-20,0.006717167705866526
2015-05-21,0.006516727155447489
2015-05-24,0.006236960930058386
2015-05-25,0.006088320863625656
2015-05-26,0.005911512230509544
2015-05-27,0.006005261356901735
2015-05-28,0.006350885545694474
2015-05-31,0.00616453657814487
2015-06-01,0.0066406411082773715
2015-06-02,0.007305381029114705
2015-06-03,0.0071697823841779355
2015-06-04,0.00761708364245094
2015-06-07,0.007920791953704454
2015-06-08,0.007500449671296979
2015-06-09,0.007704417551918634
2015-06-10,0.0076030305839244455
2015-06-11,0.0073076712565012724
2015-06-14,0.007140480452465472
2015-06-15,0.007015660420146516
2015-06-16,0.007272398961564622
2015-06-17,0.007392513321452856
2015-06-18,0.007507476655634784
2015-06-21,0.007015799751660869
2015-06-22,0.006664956912256512
2015-06-23,0.006393174275666759
2015-06-24,0.006074876113119131
2015-06-25,0.0062590278193249095
2015-06-28,0.0064268115465159845
2015-06-29,0.007070325007479121
2015-06-30,0.0074768732212306
2015-07-01,0.007065310848285551
2015-07-02,0.007684502930550871
2015-07-05,0.008071752721225805
2015-07-06,0.007808484669709676
2015-07-07,0.00763066433615899
2015-07-08,0.007523974026433344
2015-07-09,0.007330333024545237
2015-07-12,0.007082380665649145
2015-07-13,0.007212996332388484
2015-07-14,0.00741899659436073
2015-07-15,0.007705782551906396
2015-07-16,0.00771115522677022
2015-07-19,0.007659358424858049
2015-07-20,0.007462975680225329
2015-07-21,0.0071850488459235294
2015-07-22,0.0067435453569289995
2015-07-23,0.006995006402862646
2015-07-26,0.00719550594551532
2015-07-27,0.006844398377978508
2015-07-28,0.006533727065265766
2015-07-29,0.006278817989175354
2015-07-30,0.006401759561377116
2015-08-02,0.006668062449850177
2015-08-03,0.007324486560575168
2015-08-04,0.007669594663391224
2015-08-05,0.007657695044577576
2015-08-06,0.0071801453985363105
2015-08-09,0.007100063584355148
2015-08-10,0.007676201899758353
2015-08-11,0.008148758906918468
2015-08-12,0.007732776127852865
2015-08-13,0.007543434975863369
2015-08-16,0.0072478324775874054
2015-08-17,0.007028630157759745
2015-08-18,0.006945870860776909
2015-08-19,0.006737380085007122
2015-08-20,0.006567710078935176
2015-08-23,0.007510016501868378
2015-08-24,0.007413658180306341
2015-08-25,0.007442754024570164
2015-08-26,0.00716591445138658
2015-08-27,0.0067347062762875415
2015-08-30,0.006412084399409855
2015-08-31,0.0071355069423091515
2015-09-01,0.006968899303572775
2015-09-02,0.006622835067603292
2015-09-03,0.007330061134203056
2015-09-06,0.007174056767474273
2015-09-07,0.0070691241412261
2015-09-08,0.007054472416852814
2015-09-09,0.006978724387077617
2015-09-10,0.0072963155022863595
2015-09-13,0.007498150109265903
2015-09-14,0.007506425101461197
2015-09-15,0.00730882330849968
2015-09-16,0.00712905021503541
2015-09-17,0.006846618056818598
2015-09-20,0.006568645338474416
2015-09-22,0.007289456385726252
2015-09-23,0.007366423786745806
2015-09-24,0.007130393516263956
2015-09-27,0.00676907969367367
2015-09-28,0.0065937168584112756
2015-09-29,0.006645165654239037
2015-09-30,0.006634153821793393
2015-10-01,0.006556571405951016
2015-10-04,0.00637953059124023
2015-10-05,0.006255135549008795
2015-10-06,0.006620840152651026
2015-10-07,0.006634280141747386
2015-10-08,0.006704760131622572
2015-10-11,0.00677249155079239
2015-10-12,0.006679956440021502
2015-10-13,0.00740388812287711
2015-10-14,0.0074429675426716056
2015-10-15,0.0074255412896236305
2015-10-18,0.006955002626079094
2015-10-19,0.007039431009930592
2015-10-20,0.006642757366364111
2015-10-21,0.0064034889830523875
2015-10-22,0.0062160254842629215
2015-10-26,0.0064613093782441375
2015-10-27,0.006338715851226707
2015-10-28,0.006559736147567651
2015-10-29,0.007461969279884245
2015-10-30,0.007158185759892514
2015-11-02,0.006796601062757342
2015-11-03,0.007079915272560394
2015-11-04,0.006930492753091802
2015-11-05,0.006639886127870953
2015-11-06,0.006478822833023025
2015-11-09,0.006348478344949947
2015-11-10,0.006086087034596378
2015-11-11,0.005751937960696635
2015-11-12,0.0061702281063611576
2015-11-13,0.006605783241621079
2015-11-16,0.006201155867219571
2015-11-17,0.00598371616241817
2015-11-18,0.005643450722245451
2015-11-19,0.005769204242085067
2015-11-20,0.006477046796221856
2015-11-23,0.006594257739348871
2015-11-24,0.006416025043681091
2015-11-25,0.0064340232548467284
2015-11-26,0.0063148073080719555
2015-11-27,0.006160892500352534
2015-11-30,0.006102828750327363
2015-12-01,0.006684483839589701
2015-12-02,0.007198734993904723
2015-12-03,0.0068796110657686664
2015-12-04,0.007038853132499478
2015-12-07,0.006848649337320939
2015-12-08,0.006635174384655163
2015-12-09,0.0065003762143226495
2015-12-10,0.006844992199013892
2015-12-11,0.00707127847051291
2015-12-14,0.006868687151190559
2015-12-15,0.007218780926105523
2015-12-16,0.0070641537170979775
2015-12-17,0.006968357023019561
2015-12-18,0.006743045807089607
2015-12-21,0.006888471106583213
2015-12-22,0.007082794598970124
2015-12-23,0.006604523556186538
2015-12-24,0.006363200445030369
2015-12-25,0.006235543270385352
2015-12-28,0.006087361608214975
2015-12-29,0.005923192921913892
2015-12-30,0.005820464856062905
2015-12-31,0.005754074509201267
2016-01-01,0.005693640615686884
2016-01-04,0.0061053091431378164
2016-01-05,0.006585572775770828
2016-01-06,0.0065121032917871925
2016-01-07,0.006928167342373817
2016-01-08,0.00710829824648997
2016-01-11,0.006959062657454972
2016-01-12,0.0072460581819224585
2016-01-13,0.007182696883213703
2016-01-14,0.006942218534412719
2016-01-15,0.007048202924811806
2016-01-18,0.00685511700161095
2016-01-19,0.0066929657872101716
2016-01-20,0.006423468230980876
2016-01-21,0.006680649071625093
2016-01-22,0.006877174137937594
2016-01-25,0.00703873312808491
2016-01-26,0.0069125379046502695
2016-01-27,0.006528499482889543
2016-01-28,0.006395820948397423
2016-01-29,0.006571548023511891
2016-02-01,0.0063876517361181944
2016-02-02,0.006434033754966884
2016-02-03,0.0065682456296121
2016-02-04,0.006165513798925527
2016-02-05,0.0061290485275737015
2016-02-08,0.0060146164898898695
2016-02-09,0.006289786740612027
2016-02-10,0.006093801973425449
2016-02-11,0.006487887546752198
2016-02-12,0.006197467007698479
2016-02-15,0.00618929079286287
2016-02-16,0.005840055736229806
2016-02-17,0.005835551755070536
2016-02-18,0.0060610123439940695
2016-02-19,0.005812297176565914
2016-02-22,0.005849133092525484
2016-02-23,0.006182695014487946
2016-02-24,0.005866645370595945
2016-02-25,0.006365170701267673
2016-02-26,0.006954587079748553
2016-02-29,0.0074472594311950835
2016-03-01,0.007074312328966868
2016-03-02,0.007061932876897809
2016-03-03,0.008104794814262257
2016-03-04,0.00857245232752923
2016-03-07,0.00847392001842
2016-03-08,0.008276211445675712
2016-03-09,0.008188767770984593
2016-03-10,0.00801785578734283
2016-03-11,0.008085794659675486
2016-03-14,0.008078380755412947
2016-03-15,0.007729639272883457
2016-03-16,0.0074613793248203475
2016-03-17,0.007405352230190326
2016-03-18,0.007131755642319587
2016-03-21,0.006780130239296761
2016-03-22,0.006622406650775565
2016-03-23,0.006574591890005881
2016-03-24,0.006162621040719746
2016-03-25,0.005851362394954046
2016-03-27,0.005544622223885894
2016-03-28,0.0053987920650368885
2016-03-29,0.005087949774677104
2016-03-30,0.005069810505057311
2016-03-31,0.005076895468981796
2016-04-03,0.004851045792625953
2016-04-04,0.004999328236009814
2016-04-05,0.004739161933437696
2016-04-06,0.004680221795335001
2016-04-07,0.005339920238525353
2016-04-10,0.005473283078630682
2016-04-11,0.0052016200015856376
2016-04-12,0.005078718572900946
2016-04-13,0.005276238674836582
2016-04-14,0.005517721626633963
2016-04-17,0.005508955796160111
2016-04-18,0.005420316096434393
2016-04-19,0.005471293518117649
2016-04-20,0.005328129695394967
2016-04-21,0.005317906145723897
2016-04-24,0.005443912849600764
2016-04-25,0.005224133360343567
2016-04-26,0.006223266691747607
2016-04-27,0.007321390499479912
2016-04-28,0.006956505463802784
2016-05-01,0.006751683644959721
2016-05-02,0.006676206241748321
2016-05-03,0.006608834367337725
2016-05-04,0.006719989055385021
2016-05-05,0.00693713269428609
2016-05-08,0.007177766073265657
2016-05-09,0.007094068496603837
2016-05-10,0.006724777889703558
2016-05-11,0.006992079469010447
2016-05-12,0.006932788078366836
2016-05-15,0.006642160358483489
2016-05-16,0.006416363190020379
2016-05-17,0.00629005153359035
2016-05-18,0.0059707621383339
2016-05-19,0.006126707699881486
2016-05-22,0.006031157149889947
2016-05-23,0.006050431639183523
2016-05-24,0.0061344008078132685
2016-05-25,0.006341586464398036
2016-05-26,0.00605411600265532
2016-05-29,0.005703250573894224
2016-05-30,0.005908661247187501
2016-05-31,0.006481256872388392
2016-06-01,0.006207738524360656
2016-06-02,0.005867328629763471
2016-06-05,0.005678662299066077
2016-06-06,0.005769472134847072
2016-06-07,0.00560843841092942
2016-06-08,0.005394407095863029
2016-06-09,0.005725092303301386
2016-06-12,0.005400871424494154
2016-06-13,0.0054769520370302836
2016-06-14,0.005445812605813832
2016-06-15,0.005927111705398564
2016-06-16,0.005958603726441526
2016-06-19,0.005646203460267136
2016-06-20,0.005545403213105189
2016-06-21,0.005464302983597661
2016-06-22,0.005737781341912113
2016-06-23,0.005982368388918383
2016-06-26,0.005876413503995659
2016-06-27,0.005886598253710262
2016-06-28,0.005930484092730948
2016-06-29,0.005861520943250166
2016-06-30,0.0055149123044465845
2016-07-03,0.0053469185684146955
2016-07-04,0.005378424384956496
2016-07-05,0.005401108357459606
2016-07-06,0.00521710061764106
2016-07-07,0.005430879144952401
2016-07-10,0.006072744920312945
2016-07-11,0.006151763140290603
2016-07-12,0.00589249434455557
2016-07-13,0.006032173319944455
2016-07-14,0.005746518082805561
2016-07-17,0.005594409648319448
2016-07-18,0.00573009467343948
2016-07-19,0.005628659339622377
2016-07-20,0.005430183672506494
2016-07-21,0.005405884838756041
2016-07-24,0.005429107350273462
2016-07-25,0.005902171110968204
2016-07-26,0.006020230317327616
2016-07-27,0.005638642437518505
2016-07-28,0.005410239406267185
2016-07-31,0.005331936591533825
2016-08-01,0.005299726834995688
2016-08-02,0.005442103489638853
2016-08-03,0.00525838181180751
2016-08-04,0.005659354539535544
2016-08-07,0.006231686358140141
2016-08-08,0.006117280189701553
2016-08-09,0.005860760176151445
2016-08-10,0.005557777306426328
2016-08-11,0.005946793213110146
2016-08-14,0.006104879412173704
2016-08-15,0.005808245168447015
2016-08-16,0.006037941942129382
2016-08-17,0.006132874660548713
2016-08-18,0.006022669327652375
2016-08-21,0.005840764375677208
2016-08-22,0.005876066920271699
2016-08-23,0.005738419283109433
2016-08-24,0.005452817905744471
2016-08-25,0.005274973769619861
2016-08-28,0.005074904214647013
2016-08-29,0.005015911056457944
2016-08-30,0.004735560266710945
2016-08-31,0.004657520247660151
2016-09-01,0.0045651973728272795
2016-09-04,0.004737254703339619
2016-09-05,0.004603522224529646
2016-09-06,0.004727270637063243
2016-09-07,0.004826394162987304
2016-09-08,0.004685794579916784
2016-09-11,0.004703809252779863
2016-09-12,0.0045052514490098745
2016-09-13,0.004314947774080596
2016-09-14,0.004334094361646268
2016-09-15,0.004254373335814396
2016-09-18,0.004413418097541945
2016-09-19,0.004682816804860385
2016-09-20,0.00464775846165607
2016-09-21,0.004456632857252071
2016-09-22,0.004490016224591212
2016-09-25,0.004678515065691836
2016-09-26,0.005176835418142417
2016-09-27,0.0051592043168465366
2016-09-28,0.0054306182942146525
2016-09-29,0.005308431273199333
2016-10-02,0.005008257610827955
2016-10-03,0.004956382067197396
2016-10-04,0.004849069062397586
2016-10-05,0.004668849843654889
2016-10-06,0.004407860569108094
2016-10-09,0.004422870528457517
2016-10-10,0.004716808347853411
2016-10-11,0.00458460775157817
2016-10-12,0.004353421483608309
2016-10-13,0.004353462806207705
2016-10-16,0.004210501177192854
2016-10-17,0.00432196537882195
2016-10-18,0.004277396423191793
2016-10-19,0.004649939535820949
2016-10-20,0.004534872426119469
2016-10-23,0.0048339529671109285
2016-10-24,0.004747884898031568
2016-10-25,0.005319178833886452
2016-10-26,0.005230737488608848
2016-10-27,0.005501399096565361
2016-10-31,0.005312513446810684
2016-11-01,0.005544262486324202
2016-11-02,0.00552174373730104
2016-11-03,0.005349904898922403
2016-11-04,0.005352197406142231
2016-11-07,0.005008540448560637
2016-11-08,0.004953787559377724
2016-11-09,0.005063445590850741
2016-11-10,0.005202770905789995
2016-11-11,0.005163358698233564
2016-11-14,0.004957904505502605
2016-11-15,0.004816554183680995
2016-11-16,0.005696871741989501
2016-11-17,0.006310595188990251
2016-11-18,0.006585909818348089
2016-11-21,0.007075701974180368
2016-11-22,0.0067640804045960455
2016-11-23,0.007023003232839176
2016-11-24,0.006816645859064947
2016-11-25,0.006978742583417446
2016-11-28,0.006813903827459047
2016-11-29,0.006625767839783405
2016-11-30,0.006920712994084604
2016-12-01,0.007580804923078569
2016-12-02,0.007475033142858671
2016-12-05,0.007176959346940196
2016-12-06,0.0068132479650159046
2016-12-07,0.006737230253229054
2016-12-08,0.0067969280922841185
2016-12-09,0.006775504657120973
2016-12-12,0.006766540038755192
2016-12-13,0.006864287178844107
2016-12-14,0.006432266666069522
2016-12-15,0.00611510476135027
2016-12-16,0.006470454421253818
2016-12-19,0.006792564819735687
2016-12-20,0.0064637387611831375
2016-12-21,0.006124043135384344
2016-12-22,0.00580282576857118
2016-12-23,0.0055759810708160985
2016-12-26,0.005380696708614949
2016-12-27,0.005182646943713877
2016-12-28,0.005387029304877175
2016-12-29,0.005199455783100227
2016-12-30,0.005004280370021639
2017-01-02,0.005417046057877236
2017-01-03,0.005142828482314574
2017-01-04,0.005085840733577822
2017-01-05,0.004826352109750838
2017-01-06,0.0045052555304829186
2017-01-09,0.00427673727830557
2017-01-10,0.004411541758426596
2017-01-11,0.004460931632824703
2017-01-12,0.0044960079447657845
2017-01-13,0.00450279309156823
2017-01-16,0.004393807870741929
2017-01-17,0.0041146787371174965
2017-01-18,0.004148558827323394
2017-01-19,0.005087518911086011
2017-01-20,0.005585196131722728
2017-01-23,0.005279539265171106
2017-01-24,0.005417286460516019
2017-01-25,0.006067837427622026
2017-01-26,0.006362849039934749
2017-01-27,0.006152145537082258
2017-01-30,0.00609456371300496
2017-01-31,0.0060538805906474626
2017-02-01,0.005803246262744066
2017-02-02,0.006156442958262346
2017-02-03,0.006467625604100742
2017-02-06,0.00633929520380783
2017-02-07,0.006289131260678692
2017-02-08,0.006316336170630227
2017-02-09,0.006094026444156654
2017-02-10,0.005702595983859759
2017-02-13,0.005472696270726914
2017-02-14,0.005586003679960709
2017-02-15,0.00557871770282067
2017-02-16,0.005364452152619186
2017-02-17,0.00531584842743211
2017-02-20,0.005043502111186962
2017-02-21,0.004964609103245029
2017-02-22,0.004972137024441806
2017-02-23,0.0048912700941245385
2017-02-24,0.005090536515972773
2017-02-27,0.005044641050546147
2017-02-28,0.005368380975507132
2017-03-01,0.005729068048685197
2017-03-02,0.005700348902350529
2017-03-03,0.00599582398075407
2017-03-06,0.005802407982128776
2017-03-07,0.005717450269119576
2017-03-08,0.0054873466784681815
2017-03-09,0.005411750487149027
2017-03-10,0.005120696880924106
2017-03-13,0.00519536138942952
2017-03-14,0.005033692718755978
2017-03-15,0.004944143238844845
2017-03-16,0.00497227586464163
2017-03-17,0.004769613302881513
2017-03-20,0.005067640924104247
2017-03-21,0.004827238000953951
2017-03-22,0.00495079242945725
2017-03-23,0.005079664398781737
2017-03-24,0.005046402656011621
2017-03-26,0.004734445323439369
2017-03-27,0.004774484943193687
2017-03-28,0.004602378875822706
2017-03-29,0.004555923241835382
2017-03-30,0.004513214438847135
2017-04-02,0.0044528419789294825
2017-04-03,0.004254781837577386
2017-04-04,0.004156583134893302
2017-04-05,0.003919327196686632
2017-04-06,0.004334375254066175
2017-04-09,0.004738062735918595
2017-04-10,0.0049788439690672615
2017-04-11,0.0049520693998481745
2017-04-12,0.0049146358712875825
2017-04-13,0.005360947594767051
2017-04-16,0.005006237052283701
2017-04-17,0.004802005834263429
2017-04-18,0.004569576846101764
2017-04-19,0.004542749928523069
2017-04-20,0.004624553505057129
2017-04-23,0.004795656826124479
2017-04-24,0.004884824195687028
2017-04-25,0.005207908181709389
2017-04-27,0.005063843311587285
2017-04-30,0.0054797116464739195
2017-05-01,0.005957017957440069
2017-05-02,0.006029873817622922
2017-05-03,0.0069520256877927105
2017-05-04,0.006782166710093221
2017-05-07,0.006768654802229425
2017-05-08,0.006733250887784464
2017-05-09,0.0065252329672284195
2017-05-10,0.006336287755283539
2017-05-11,0.006259838629906143
2017-05-14,0.006006993013484279
2017-05-15,0.005864922083949693
2017-05-16,0.005686356220810434
2017-05-17,0.005567402205038264
2017-05-18,0.005336159190392686
2017-05-21,0.005159790676793205
2017-05-22,0.005106234199879406
2017-05-23,0.00489386032845946
2017-05-24,0.004940227447855218
2017-05-25,0.004867568344436997
2017-05-28,0.004878956319834347
2017-05-29,0.0047472451541319014
2017-05-30,0.004572370500265341
2017-05-31,0.004849629750246378
2017-06-01,0.0047100847680859315
2017-06-04,0.005122364427508372
2017-06-05,0.005368766968400634
2017-06-06,0.0054694264706577275
2017-06-07,0.005710824579896468
2017-06-08,0.005757908538475308
2017-06-11,0.005727557928584217
2017-06-12,0.0063040180765424935
2017-06-13,0.006369373928218029
2017-06-14,0.006742632933345306
2017-06-15,0.006506302009534923
2017-06-18,0.0061094232945681426
2017-06-19,0.005732393059241848
2017-06-20,0.005429650697867438
2017-06-21,0.005476247076591194
2017-06-22,0.0053990151425489605
2017-06-25,0.005474728346652598
2017-06-26,0.005171247750463123
2017-06-27,0.005448444339715754
2017-06-28,0.005355984029736073
2017-06-29,0.005208270884754922
2017-07-02,0.005129537250129566
2017-07-03,0.005446856017977449
2017-07-04,0.005821080588121924
2017-07-05,0.005440860546113207
2017-07-06,0.0053637990785336985
2017-07-09,0.005223384858638427
2017-07-11,0.005460000225878546
2017-07-12,0.005499214495458646
2017-07-13,0.0059155563172116
2017-07-16,0.00584158800883935
2017-07-17,0.006172474579636539
2017-07-18,0.006572440681091065
2017-07-19,0.006242980632441693
2017-07-20,0.006502124872981577
2017-07-23,0.006688615953482904
2017-07-24,0.00638492909966269
2017-07-25,0.006174505592543924
2017-07-26,0.006389469478790784
2017-07-27,0.006148507373162872
2017-07-30,0.006084828275079815
2017-07-31,0.006126840541145546
2017-08-01,0.005746209073920869
2017-08-02,0.00539990842578366
2017-08-03,0.0051533435382276884
2017-08-06,0.0050921047140685734
2017-08-07,0.004891454377349392
2017-08-08,0.004818350493253006
2017-08-09,0.004606468315163503
2017-08-10,0.004421149149794674
2017-08-13,0.00433613849623791
2017-08-14,0.004315128603649487
2017-08-15,0.004167976560531659
2017-08-16,0.004188549663350819
2017-08-17,0.004188153258825764
2017-08-20,0.0040068565974810694
2017-08-21,0.00394572398337528
2017-08-22,0.003945743698848466
2017-08-23,0.004099333434645011
2017-08-24,0.004052666760741792
2017-08-27,0.00394261913497451
2017-08-28,0.0038677891967620363
2017-08-29,0.004150447111279032
2017-08-30,0.004096343746187671
2017-08-31,0.004652676335745697
2017-09-03,0.004590770883192438
2017-09-04,0.004600644391535826
2017-09-05,0.005069098363568984
2017-09-06,0.0058021627661712085
2017-09-07,0.005435293997158975
2017-09-10,0.0051452015687904916
2017-09-11,0.005199758599591174
2017-09-12,0.005146418699620371
2017-09-13,0.004945245935361769
2017-09-14,0.004809014082835927
2017-09-17,0.004791513076919075
2017-09-18,0.004962976428567711
2017-09-19,0.005250549540812868
2017-09-20,0.005210724573611944
2017-09-21,0.005857529961211091
2017-09-24,0.0057527778211245864
2017-09-25,0.005866436548187117
2017-09-26,0.006057548223316613
2017-09-27,0.0058058662073654285
2017-09-28,0.005777090049696473
2017-10-01,0.005581012189003863
2017-10-02,0.005348368461217871
2017-10-03,0.005015413571130888
2017-10-04,0.004752026887478681
2017-10-05,0.004913310681230209
2017-10-08,0.004999431346856629
2017-10-09,0.004776686250652585
2017-10-10,0.0045009229470345455
2017-10-11,0.004198571307960645
2017-10-12,0.004742744785963454
2017-10-15,0.005087334444108921
2017-10-16,0.004762239126672577
2017-10-17,0.00460072204619597
2017-10-18,0.004420741900039107
2017-10-19,0.004675188907179168
2017-10-22,0.004720175413809236
2017-10-23,0.004500234312822854
2017-10-24,0.004355146147621209
2017-10-25,0.004156278565648257
2017-10-26,0.003932258668101946
2017-10-30,0.003717883048951816
2017-10-31,0.0036881056883123846
2017-11-01,0.003660669567718633
2017-11-02,0.0035720503128815863
2017-11-03,0.003865261004818619
2017-11-06,0.004115742361617284
2017-11-07,0.0039859036215017735
2017-11-08,0.003778696219965933
2017-11-09,0.0036678607756826425
2017-11-10,0.003795227863133881
2017-11-13,0.0037414258729100316
2017-11-14,0.003609538310559306
2017-11-15,0.0034436427169479136
2017-11-20,0.003842668237165911
2017-11-21,0.003671191934511207
2017-11-22,0.0036161782249032586
2017-11-23,0.003455379780267308
2017-11-24,0.0033756383673910623
2017-11-27,0.0032112356268631224
2017-11-28,0.003368718796372898
2017-11-29,0.003391381739489109
2017-11-30,0.0032477116152398824
2017-12-01,0.0033607322141513117
2017-12-04,0.004073894198854778
2017-12-05,0.0038646160417937325
2017-12-06,0.003841214895951324
2017-12-07,0.0037434138319548107
2017-12-08,0.003646384272529465
2017-12-11,0.0035262139673487864
2017-12-12,0.0036885558268238893
2017-12-13,0.004056301839193618
2017-12-14,0.004483780279251215
2017-12-15,0.0044197245450189855
2017-12-18,0.004425958506089053
2017-12-19,0.0042786757556541235
2017-12-20,0.004073413201678836
2017-12-21,0.004194312258701771
2017-12-22,0.004246575668794501
2017-12-25,0.004289534549594899
2017-12-26,0.00408249636748098
2017-12-27,0.0038612466269466175
2017-12-28,0.003797443296450428
2017-12-29,0.003830054489561118
2018-01-01,0.005022907740306748
2018-01-02,0.004815342901713395
2018-01-03,0.0045578184087338705
2018-01-04,0.004528974236681459
2018-01-05,0.004884261791204207
2018-01-08,0.005158671663261051
2018-01-09,0.004851623687313831
2018-01-10,0.004744650566791421
2018-01-11,0.005369746954877753
2018-01-12,0.005283050743815051
2018-01-15,0.005073832833542553
2018-01-16,0.004966916202575215
2018-01-17,0.00485356504524841
2018-01-18,0.004854453256302089
2018-01-19,0.004885063737994799
2018-01-22,0.0048482734709951614
2018-01-23,0.0048784682230669455
2018-01-24,0.004810006207133579
2018-01-25,0.004727862906624037
2018-01-26,0.004540158413293749
